Tiempo (s),Voltaje (V)
0.0134180000051856,-0.125046403642045
0.622731000006199,-0.0222171868663281
0.63327800000459,-0.102804347348865
0.642573000006378,0.16893555779825
0.655197000004351,-0.0102902871149126
0.664858000002801,0.0889930945995729
0.672135000005364,0.0180763933749404
0.67871400000155,-0.124724055000115
0.685853000000119,0.27917879333836
0.693140000000596,-0.101837301423075
0.699866000004113,-0.0924891908071004
0.707690000005066,0.127674931631191
0.714743000000715,-0.115698293026071
0.722609000004828,0.0735203597869258
0.72837800000608,-0.131171027838718
0.735673000000417,0.0941506728704553
0.742644000001252,-0.0737929695751518
0.749866000004113,-0.0911997962393798
0.75758900000155,-0.0496168214303907
0.763743000000715,-0.128269890061347
0.771096000000834,-0.0312429488403723
0.777144000001252,0.247266277787276
0.785130000002682,0.295296225434868
0.791537000000477,0.8452230085677
0.797799000002444,1.36710545985261
0.805218000002205,-0.0911997962393798
0.811944000005722,0.0254904121393338
0.81815300000459,-0.0215724895824678
0.824668000005186,0.174737833352992
0.83095000000298,0.157008658046834
0.838126000002027,0.103176434844499
0.845018000006676,-0.0102902871149126
0.850685000002384,-0.11440889845835
0.856848000004888,0.00228130992036313
0.862358000002801,0.0296809444844257
0.869021999999881,0.157975703972625
0.875893000006676,0.10382113212836
0.881316000007093,0.185052989894757
0.887452000007033,0.140246528666466
0.893062000006437,0.261449618032202
0.898604000002146,0.109945756325033
0.905208000004292,0.232115891616559
0.910973000004888,0.0470877711486537
0.917230000004172,-0.118599430803442
0.923407000005245,0.19214466001722
0.929415000006557,0.0445089820132125
0.935828000001609,0.163777979527367
0.941895000003278,0.0603040654677898
0.947212000004947,0.210518532607239
0.954006000004709,0.0657839923806023
0.959942000001669,0.0516006521356758
0.966726000003517,-0.0928115394490305
0.97373600000143,-0.00706680069561116
0.981337000004947,0.216643156803912
0.988231000006199,0.0886707459576428
0.994066000007093,0.0364502659649588
1.00008200000226,-0.0679906940204091
1.00619400000572,-0.0692800885881297
1.01276000000536,0.10478817805415
1.01992500000447,-0.0815293369814754
1.0261460000053,-0.120855871296953
1.03198600000143,0.0622381573193707
1.0380549999997,0.116715077805566
1.04423400000483,0.545438771572663
1.05073400000483,-0.0979691177199129
1.05736000000685,0.0490218630002346
1.06376099999994,0.271442425932037
1.07037700000405,-0.0644448589591775
1.07797700000554,0.154107520269463
1.08447100000083,0.12574083977961
1.09252000000328,0.487416016025236
1.09933900000155,0.210840881249169
1.10796100000292,0.385553845175309
1.11458300000429,0.102854086202569
1.12248500000685,0.0167869988072198
1.13018500000238,0.229537102481117
1.13752400000393,0.173770787427202
1.14429500000179,0.205683302978287
1.15191800000519,0.00034721806878224
1.15881700000167,0.411019387887791
1.1676630000025,0.396513699000934
1.17586800000072,-0.050261518714251
1.18371900000423,0.0593370195419993
1.19065700000525,0.203104513842845
1.19777800000459,0.12606318842154
1.20662900000066,0.194723449152661
1.21573900000006,-0.0824963829072658
1.2244110000059,-0.0821740342653356
1.23338400000334,0.0271021553489845
1.24276700000465,0.347839054069482
1.25196500000358,0.0428972388035618
1.26120600000024,0.0880260486737825
1.27039300000668,-0.0199607463728171
1.2799260000065,0.14894994199858
1.28936600000411,0.194078751868801
1.29825900000334,0.0767438462062273
1.30726900000125,0.0316150363360066
1.3158580000028,0.185697687178617
1.32513000000268,0.418755755294114
1.33354300000519,-0.0396240135305561
1.34277900000662,-0.115053595742211
1.3509299999997,0.152173428417882
1.36014500000328,-0.00738914933754131
1.36899000000209,0.0899601405253634
1.37714500000328,-0.0602543266140856
1.38656700000167,0.185697687178617
1.39517700000107,-0.122789963148534
1.40330700000376,0.397158396284794
1.41147800000012,0.175382530636853
1.41858400000632,0.19149996273336
1.42471300000697,0.180862457549665
1.43205700000376,0.0570805790484883
1.43955900000036,0.133799555827864
1.44684800000489,0.00034721806878224
1.4550360000059,-0.0924891908071004
1.46200700000674,0.145404106937349
1.47017000000179,0.587344095023582
1.47614500000328,0.658905493532075
1.48290300000459,0.741426745866193
1.4908960000053,-0.110218366113259
1.50056000000238,0.258548480254831
1.50974200000614,0.132832509902073
1.51848900000006,0.620546005142387
1.52631900000572,1.2665326835704
1.53543900000304,0.685015733528417
1.5450530000031,0.297230317286449
1.5542330000028,0.356542467401596
1.56255700000376,0.19053291680757
1.57175,1.37838766232016
1.58057900000364,2.28579908935353
1.59057800000161,0.23437233211007
1.5994830000028,0.875201432267204
1.60950700000674,0.0967294620058965
1.61899700000137,-0.0112573330407031
1.62841500000656,0.725631662411615
1.63825700000674,1.30489217196009
1.64580800000578,0.939993509295164
1.65452700000256,1.46671119020903
1.66196200000495,0.377172780485125
1.66971100000292,1.72265601190156
1.67693500000238,0.911949177447241
1.68429800000042,1.11116063816007
1.69067300000042,0.634084648103453
1.69721900000423,1.31972020948888
1.70379100000113,2.5388427732687
1.70967200000584,2.55076967302011
1.71656100000441,2.55399315943941
1.72318800000101,0.674055879702792
1.7303049999997,0.88809537794441
1.73710400000215,0.972228373488178
1.74277000000328,1.50378128403099
1.74877199999988,-0.096035025868332
1.75552900000662,1.36903955170419
1.7608960000053,0.298519711854169
1.76633300000429,2.14654447603971
1.77272200000286,1.59919648204232
1.77867400000244,1.2707232159155
1.78417900000513,0.160876841749996
1.79075,0.225991267419886
1.79738000000268,0.0870590027479921
1.80378500000387,0.297230317286449
1.81010500000417,-0.015447865385795
1.81609500000626,1.99987584396149
1.82286200000346,2.50209502808866
1.82943500000238,0.923231379914796
1.83566500000656,2.24937369281542
1.84199900000542,0.412308782455511
1.84776000000536,-0.00255391970858909
1.85442400000244,0.0445089820132125
1.86003000000119,0.786877904378343
1.86543400000036,0.440353114303434
1.87263900000602,0.832006714248564
1.87859800000489,1.92992618866265
1.88418800000101,2.36251806613291
1.89058200000227,2.56592005919083
1.89693500000238,1.4857297600829
1.90450400000066,0.570581965643214
1.9105360000059,2.54980262709432
1.91695300000161,2.08626527999877
1.92338400000334,0.459049335535383
1.92988000000268,1.76004845436546
1.93754399999976,2.57172233474557
1.94348900000006,2.51466662512394
1.94926400000602,1.56889570970088
1.95619700000435,0.404250066407258
1.96313300000131,0.51771678836667
1.97070900000632,1.27523609690252
1.9777160000056,2.11044142814353
1.98530600000173,0.508691026392626
1.99250700000674,0.603139178478159
1.99912200000137,0.620868353784317
2.00566800000519,0.0793226353416685
2.01262200000137,0.127674931631191
2.01889400000125,0.353641329624224
2.02509000000358,-0.0731482722912915
2.03234600000083,-0.0238289300759789
2.0387860000059,0.461628124670824
2.04485700000077,0.0509559548518155
2.05111600000411,0.284336371609243
2.05763300000131,-0.0902327503135893
2.06387600000203,0.146693501505069
2.0698030000031,0.471620932570659
2.07637600000203,0.927099563617958
2.08205800000578,-0.0322099947661627
2.08856400000304,-0.015447865385795
2.09433100000024,-0.0019092224247288
2.1001210000068,0.14830524471472
2.10661600000411,0.0561135331226978
2.1129430000037,-0.104093741916586
2.12092300000042,0.664707769086817
2.12825800000131,-0.0834634288330562
2.13507100000232,-0.0795952451298945
2.14164400000125,0.600238040700788
2.14732300000638,0.0203328338684514
2.15467200000584,0.715316505869851
2.16068400000036,-0.0683130426623393
2.16635700000078,0.727888102905126
2.17298800000548,1.45123845539638
2.17826700000465,0.317215933086118
2.18454399999976,0.342359127156669
2.19085100000352,0.127352582989261
2.19626900000125,-0.0741153182170819
2.20262100000679,0.0648169464548118
2.20846000000089,0.514815650589298
2.21407400000095,0.177316622488433
2.22073900000006,-0.0019092224247288
2.22600300000608,0.275955306919059
2.23171900000423,0.0200104852265213
2.23780400000513,0.0751321029965766
2.2433180000037,-0.0354334811854642
2.24909600000083,0.205683302978287
2.25608400000632,0.175704879278783
2.26179600000381,0.0512783034937456
2.26779200000316,0.00292600720422342
2.27401300000399,0.961590868304484
2.27975400000066,0.224379524210235
2.28644600000232,0.280468187906081
2.29272100000083,-0.100547906855354
2.29838300000131,0.0996305997832678
2.30483800000697,0.194723449152661
2.31048200000077,0.189565870881779
2.31634200000018,-0.0183490031631663
2.3227330000028,0.0290362472005654
2.32953299999982,-0.0747600155009422
2.33631600000709,0.118004472373286
2.34236000000685,0.181829503475456
2.34759300000221,0.0470877711486537
2.35403299999982,-0.0905550989555195
2.35988500000536,0.318827676295768
2.36590200000256,0.0951177187962458
2.37272200000286,0.108978710399242
2.37893600000441,-0.00835619526333176
2.38491700000316,-0.04800507822074
2.39190200000256,0.0113070718944073
2.39785500000417,-0.0683130426623393
2.40550300000608,0.095762416080106
2.41182100000232,0.00647184226545505
2.4178410000056,-0.0086785439052619
2.42421800000221,0.25661438840325
2.42963000000268,0.0271021553489845
2.43655000000447,-0.0847528234007768
2.44231000000238,0.134766601753654
2.44772400000691,-0.122789963148534
2.45420000000298,0.0828684704029001
2.45967500000447,0.228570056555327
2.46529600000381,0.167646163230529
2.47272900000215,0.0109847232524771
2.47846200000495,-0.100547906855354
2.48452400000393,-0.0592872806882951
2.49135400000215,0.166679117304739
2.49705400000513,0.317215933086118
2.50417900000513,0.136378344963305
2.51020700000227,-0.085075172042707
2.51706200000644,0.229859451123048
2.52392900000513,0.118004472373286
2.53023200000077,-0.0470380322949495
2.53740000000596,-0.0367228757531848
2.54375500000268,-0.0754047127848025
2.54909700000286,0.0396737523842603
2.55581300000101,0.10414348077029
2.56176200000197,-0.0586425834044348
2.5681060000062,-0.096035025868332
2.57427300000191,-0.0325323434080929
2.57998800000548,0.0577252763323486
2.58579100000113,0.00357070448808372
2.59226800000668,0.208262092113728
2.59795000000298,-0.0602543266140856
2.60537100000679,0.0483771657163743
2.61193700000644,-0.0876539611781482
2.61807600000501,-0.0921668421651702
2.62492900000513,0.341714429872809
2.63010300000012,0.049988908926025
2.63716600000113,-0.0721812263655011
2.64343400000036,0.155074566195253
2.6490210000053,-0.0302759029145818
2.6559280000031,0.0696521760837641
2.66189900000393,-0.101514952781145
2.66915400000662,-0.0521956105658319
2.67521500000358,0.012918815104058
2.68069100000709,-0.0512285646400414
2.68835900000483,0.047732468432514
2.69433900000155,0.0203328338684514
2.70166700000316,0.0290362472005654
2.70803400000185,0.185375338536687
2.71394000000507,0.109945756325033
2.72083700000495,0.185375338536687
2.72664200000465,-0.0251183246436995
2.73340900000185,-0.123434660432395
2.74006100000441,0.147015850147
2.74627300000191,-0.0206054436566774
2.75307700000703,0.0135635123879183
2.75914400000125,0.204393908410566
2.76504000000656,-0.0554190969851334
2.7711799999997,-0.0602543266140856
2.77739800000191,0.0538570926291868
2.78397300000489,-0.0989361636457033
2.79132600000501,0.0486995143583044
2.79852199999988,0.00937298004282638
2.80525300000608,-0.105705485126236
2.81234500000626,-0.120855871296953
2.81906300000101,-0.0628331157495268
2.82595500000566,0.173126090143342
2.83284500000626,0.0593370195419993
2.84143400000036,0.0880260486737825
2.84855400000513,-0.024151278717909
2.85626200000197,0.193111705943011
2.86349500000477,-0.115053595742211
2.87057600000501,0.106399921263801
2.87705700000375,-0.0541297024174128
2.88508100000024,-0.0186713518050965
2.8927860000059,0.0212998797942419
2.90007600000501,-0.110218366113259
2.90674000000209,-0.0431698485917877
2.91215300000459,-0.129559284629067
2.91863800000399,-0.0766941073525231
2.92442000000179,0.0648169464548118
2.9311400000006,-0.0837857774749864
2.93815500000119,0.156363960762974
2.94446900000423,-0.121500568580814
2.95027600000054,-0.0515509132819716
2.95654600000381,-0.0209277922986075
2.96232700000703,-0.127625192777487
2.97006500000507,0.0364502659649588
2.97835100000352,-0.133105119690299
2.98765400000662,-0.0451039404433686
2.99540400000662,-0.0979691177199129
3.00299300000072,0.30142084963154
3.01020400000364,-0.0193160490889568
3.0175549999997,-0.0444592431595083
3.02462000000477,0.19149996273336
3.0313710000068,-0.0818516856234055
3.03781400000304,-0.00158687378279865
3.04434700000286,0.0641722491709515
3.05125100000203,-0.0112573330407031
3.05762600000203,-0.0634778130333871
3.06430200000107,-0.0109349843987729
3.07101300000399,0.163777979527367
3.07748600000143,0.036772614606889
3.08272500000149,-0.0799175937718246
3.0893200000003,0.158942749898415
3.09590500000119,-0.0970020717941225
3.10202500000596,0.000669566710712388
3.10850600000471,0.0790002866997384
3.11588700000197,-0.0999032095714938
3.12524300000072,0.00486009905580431
3.13176600000262,-0.0805622910556849
3.13911900000274,0.192789357301081
3.14537700000405,0.183763595327036
3.15372400000691,0.112202196818544
3.16066400000453,0.216643156803912
3.16811600000411,-0.0583202347625047
3.17471500000358,0.216643156803912
3.18019200000167,0.0754544516385067
3.18666000000387,0.0902824891672935
3.19292100000381,-0.0931338880909607
3.2000210000053,0.00518244769773446
3.20685900000483,0.226313616061816
3.21322000000626,0.152818125701742
3.21994600000232,0.215998459520051
3.22569600000232,-0.0341440866177436
3.2315700000003,0.19149996273336
3.23872700000554,-0.103449044632725
3.24512000000477,0.226635964703746
3.25256600000709,0.355253072833875
3.25875900000334,-0.00513270884403028
3.26438599999994,0.128964326198911
3.27085300000012,0.0361279173230287
3.27703000000119,-0.041558105382137
3.2841930000037,0.675667622912442
3.29106000000238,0.445510692574317
3.2973960000053,1.18530082580401
3.30541000000387,1.91509815113386
3.31217200000584,0.401026579987956
3.31896700000018,2.0930346014793
3.32554900000244,0.358798907895107
3.3324450000003,2.528205268085
3.34120100000501,2.53368519499782
3.3481799999997,0.248555672354996
3.35647300000489,1.31198384208255
3.36327500000596,1.79711854818743
3.37061600000411,0.472265629854519
3.37708900000155,1.45059375811252
3.38379200000316,1.74167458177544
3.39113500000536,2.54400035153958
3.39751300000399,2.1881274508487
3.40490400000662,0.346872008143691
3.41185900000483,0.355575421475805
3.41907900000364,1.25976336208987
3.42612900000066,2.53755337870098
3.43373500000685,1.37032894627191
3.44093500000238,1.79647385090357
3.4474110000059,2.53787572734291
3.45506600000709,2.55689429721679
3.46308900000155,0.661161934025586
3.4711610000059,0.0422525415197015
3.47761500000209,0.80073889598134
3.48405400000513,2.55624959993293
3.49034000000358,2.55689429721679
3.4963580000028,2.54238860832993
3.5027710000053,2.5655977105489
3.50895700000226,1.42351647219039
3.51474500000477,2.01051334914519
3.52155200000107,2.34253245033324
3.52788400000334,1.16338111815276
3.53345800000429,2.24937369281542
3.5399450000003,1.75360148152686
3.54626099999994,0.829427925113123
3.55251700000465,0.166679117304739
3.55886600000411,2.55367081079748
3.56442700000107,2.54915792981046
3.57106300000101,0.253713250625879
3.57711700000614,2.54819088388467
3.58409900000691,2.56011778363609
3.5906950000003,-0.0425251513079274
3.5971610000059,0.84457831128384
3.60454700000584,0.146048804221209
3.6108560000062,0.165712071378948
3.61677600000054,0.121872656076448
3.62346900000423,0.226958313345676
3.6291630000025,0.336879200243857
3.63545700000227,-0.0183490031631663
3.64170700000227,0.805574125610292
3.64768400000036,0.0577252763323486
3.65393200000375,0.454536454548361
3.66019700000435,-0.0783058505621739
3.66541200000048,0.0728756625030655
3.67286600000411,0.407473552826559
3.67938800000399,0.242431048158323
3.68579900000244,-0.0186713518050965
3.69238000000268,0.0744874057127163
3.69804600000381,-0.0789505478460342
3.70479300000519,0.224701872852165
3.71162600000203,0.0796449839835986
3.7183200000003,0.115103334595915
3.72463500000536,0.00131426399457268
3.73125500000268,0.54092589058564
3.73764300000668,-0.0847528234007768
3.74351600000262,-0.0625107671075966
3.74997700000554,0.388777331594611
3.75665300000459,0.139279482740676
3.76359000000358,-0.00900089254719205
3.77163100000471,-0.0583202347625047
3.7789130000025,0.030325641768286
3.78674000000209,-0.0299535542726517
3.7949980000034,-0.0370452243951149
3.80261300000548,0.00389305313001387
3.80976700000465,-0.0447815918014385
3.81674700000137,-0.100547906855354
3.82403400000185,0.156363960762974
3.83094200000167,0.0516006521356758
3.8380150000006,0.0248457148554735
3.84414400000125,0.137023042247165
3.84990900000185,0.176671925204573
3.8564110000059,0.0751321029965766
3.86261300000548,-0.123112311790464
3.86891700000316,0.0274245039909147
3.87512900000066,0.293684482225217
3.88079700000584,0.00034721806878224
3.8878960000053,0.149916987924371
3.89418100000173,-0.0225395355082583
3.90164800000191,-0.0905550989555195
3.90885200000554,0.182151852117386
3.91524900000542,-0.0773388046363834
3.92180800000578,-0.0905550989555195
3.92719000000507,0.0683627815160435
3.93389300000668,-0.0573531888367143
3.94074900000542,0.106399921263801
3.94643600000441,0.0109847232524771
3.95300100000203,-0.0802399424137548
3.95896900000423,0.0345161741133779
3.96522100000083,-0.0824963829072658
3.97152900000662,0.0670733869483229
3.97759700000286,-0.11344185253256
3.98417500000447,0.0171093474491499
3.99019100000709,0.0338714768295176
3.99615000000596,-0.130203981912928
4.00235500000417,0.0116294205363374
4.00823500000685,0.204071559768636
4.01407300000638,0.0113070718944073
4.02113000000268,0.124129096569959
4.02707500000298,0.0893154432415031
4.03315100000054,-0.0792728964879643
4.03953299999982,0.0580476249742787
4.0450150000006,-0.130203981912928
4.05197200000286,-0.0625107671075966
4.05853900000453,0.0709415706514847
4.06470700000227,-0.119566476729233
4.07294800000638,0.0206551825103816
4.07943100000173,-0.126335798209766
4.08588000000268,-0.0541297024174128
4.09211500000209,0.166679117304739
4.09768100000173,-0.0750823641428724
4.10413599999994,0.103176434844499
4.11054200000316,-0.0947456313006114
4.11641899999976,-0.118921779445373
4.1237650000006,0.0780332407739479
4.12971000000089,0.0757768002804369
4.13662600000203,-0.0189937004470266
4.14302900000662,-0.00319861699244939
4.1489260000065,-0.0866869152523577
4.15575700000674,0.134121904469794
4.16157400000095,-0.0122243789664935
4.16808600000292,0.0387067064584699
4.17448200000077,0.180217760265805
4.17999500000477,0.091249535093084
4.1862330000028,-0.0202830950147472
4.19214600000531,0.117359775089426
4.19830400000513,-0.0696024372300599
4.20464100000262,0.041285495593911
4.21109800000489,-0.0986138150037732
4.21742000000179,0.180540108907735
4.22392400000244,0.0267798067070544
4.22977700000256,-0.120855871296953
4.23697700000554,0.00260365856229328
4.24289900000393,0.149916987924371
4.24886600000411,-0.0834634288330562
4.25515400000662,0.116715077805566
4.26066500000656,-0.0618660698237363
4.26638400000334,-0.0286641597049311
4.27307300000638,0.168613209156319
4.2792880000025,-0.0999032095714938
4.28594400000572,-0.0634778130333871
4.29237400000542,0.180217760265805
4.29872800000012,-0.126335798209766
4.30587700000405,0.123806747928029
4.31202800000459,-0.115053595742211
4.31884000000358,-0.109573668829398
4.32515000000596,0.0831908190448303
4.33172600000352,-0.0899104016716592
4.33861100000143,0.0699745247256942
4.34434700000286,-0.032854692050023
4.35175600000471,-0.111185412039049
4.3579810000062,0.158298052614555
4.36341899999976,-0.105383136484306
4.37031500000507,0.0993082511413377
4.37632900000364,-0.128914587345207
4.38245600000024,-0.098291466361843
4.38922200000286,0.0341938254714478
4.39576400000602,-0.0399463621724863
4.40291500000656,-0.0921668421651702
4.4094810000062,0.110912802250823
4.41515600000322,-0.0911997962393798
4.42195100000501,0.134444253111724
4.42883900000155,-0.00771149797947146
4.4373710000068,0.0100176773266867
4.44467700000107,-0.130848679196788
4.45199600000679,-0.104093741916586
4.45775400000066,0.16990260372404
4.46304300000519,-0.0557414456270635
4.46918400000036,-0.108606622903608
4.47584400000423,0.0812567271932494
4.48190500000119,-0.0818516856234055
4.48831300000101,0.134121904469794
4.49397700000554,-0.0215724895824678
4.50035400000215,0.0577252763323486
4.50647700000554,0.204393908410566
4.51211900000274,-0.0618660698237363
4.51812900000066,-0.0728259236493614
4.52470700000227,0.21406436766847
4.53083700000495,-0.0112573330407031
4.53737600000203,0.0835131676867604
4.54344900000095,0.0754544516385067
4.55025300000608,0.00937298004282638
4.55666600000113,0.167323814588599
4.56291800000519,-0.0518732619239017
4.56885400000215,-0.11311950389063
4.57520000000298,0.14862759335665
4.58072400000691,-0.0331770406919532
4.58692500000447,0.0142082096717786
4.59248200000077,0.14862759335665
4.5979130000025,-0.0789505478460342
4.60408400000632,-0.00223157106665894
4.61008600000292,-0.00352096563437954
4.61584200000018,-0.126335798209766
4.6228049999997,0.00647184226545505
4.62838800000399,-0.106672531052027
4.63453700000048,-0.0112573330407031
4.6404110000059,0.1267078857054
4.64575900000334,-0.0173819572373759
4.65173700000346,-0.0657342535268981
4.65830400000513,0.0577252763323486
4.66403000000119,-0.000942176498938352
4.67172100000083,0.08254612176097
4.67746400000155,-0.0957126772264019
4.68483900000155,-0.050261518714251
4.69096500000358,0.0854472595383413
4.69633800000697,0.143147666443838
4.70259900000691,-0.0641225103172474
4.7087310000062,0.0828684704029001
4.71445200000703,-0.0995808609295636
4.7211400000006,0.093505975586595
4.72666400000453,0.0976965079316869
4.73268400000036,-0.107639576977817
4.7389110000059,0.0612711113935802
4.74463599999994,-0.107639576977817
4.75129399999976,0.165067374095088
4.75786300000548,0.0274245039909147
4.76674400000274,-0.0734706209332217
4.77486300000548,0.084802562254481
4.78191600000113,-0.0608990238979459
4.78901900000125,0.0641722491709515
4.79681900000572,-0.04800507822074
4.80498000000417,0.0528900467033964
4.81384600000083,-0.0779835019202437
4.82229300000519,0.163133282243507
4.82921500000358,-0.121178219938884
4.83496400000155,-0.105705485126236
4.8413730000034,0.054179441271117
4.84713200000674,-0.0731482722912915
4.85381500000507,0.0274245039909147
4.8599260000065,0.000669566710712388
4.86656600000709,-0.0847528234007768
4.87423700000346,0.045476027939003
4.88211300000548,-0.126980495493626
4.89122800000012,0.00776123683317564
4.90025300000608,0.023878668929683
4.90947000000626,0.100275297067128
4.9184299999997,-0.00448801156016998
4.92726000000536,-0.124079357716255
4.93616700000316,0.116392729163636
4.94481300000101,-0.0293088569887914
4.95373200000077,-0.0286641597049311
4.9621799999997,0.0490218630002346
4.97119400000572,-0.0563861429109238
4.97857800000161,-0.0463933350110892
4.98562400000542,0.153785171627533
4.99158900000155,0.223734826926375
4.99834500000626,0.166034420020878
5.0045549999997,0.267251893586945
5.01100900000334,0.00195896127843298
5.01650200000405,0.0609487627516501
5.02281300000101,1.14178375914344
5.02846200000495,0.723052873276174
5.03443300000578,-0.0231842327921186
5.04079700000584,0.494507686147699
5.04703100000322,0.600238040700788
5.05457500000298,0.225668918777956
5.0604430000037,-0.00352096563437954
5.0662310000062,0.382975056039868
5.07328000000119,0.705968395253876
5.07900600000471,2.24421611454454
5.08665500000119,-0.0989361636457033
5.09380700000376,0.283046977041522
5.10114900000393,0.796226014994318
5.10756300000101,0.00647184226545505
5.11399200000614,0.846190054493491
5.12208200000226,0.38748793702689
5.12811400000006,0.737236213521101
5.1345530000031,0.610230848600622
5.14099100000411,0.047732468432514
5.14664500000328,0.635374042671174
5.1539110000059,2.0192167624773
5.1596230000034,0.297875014570309
5.16536300000548,0.076099148922367
5.17197600000352,0.0670733869483229
5.17745900000632,1.44865966626094
5.18347400000691,1.70460448795347
5.19006000000238,0.571871360210935
5.1952160000056,1.17724210975575
5.20100800000131,2.52369238709798
5.20716000000387,0.0667510383063927
5.21370600000024,0.0648169464548118
5.22054200000316,2.54109921376221
5.22621700000018,0.638919877732405
5.23199400000274,2.53207345178816
5.23831000000238,0.462595170596614
5.24490900000185,0.442931903438875
5.25227199999988,2.34865707452991
5.25828500000387,0.73626916759531
5.26379399999976,0.667931255506119
5.27044700000435,0.196335192362312
5.27601700000465,1.51538583514048
5.28210300000012,1.5060377245245
5.28923900000006,2.55141437030397
5.29581900000572,1.72555714967893
5.30283100000024,0.153462822985603
5.30985400000215,0.610875545884483
5.3165,1.47219111712184
5.32412000000477,0.911949177447241
5.33261700000614,2.54238860832993
5.34117100000381,1.22430501147755
5.34973400000483,1.0067196781747
5.35872200000286,1.6417465027771
5.36565600000322,0.00486009905580431
5.37278200000525,2.55367081079748
5.37956900000572,2.5356192868494
5.38848900000006,0.575094846630236
5.3953410000056,0.73594681895338
5.40402400000393,0.556720974040218
5.41206600000709,2.32190213724971
5.41849600000679,1.31295088800834
5.42450300000608,1.40288615910686
5.43075900000334,1.79389506176813
5.437875,1.20141825790051
5.445125,-0.0953903285844717
5.45302199999988,0.0370949632488191
5.45977700000256,0.62634828069713
5.46643500000238,-0.0734706209332217
5.4725360000059,1.20045121197472
5.47916200000048,0.659227842174005
5.48708300000429,1.21818038728088
5.49521400000155,2.27612863009563
5.50291400000453,0.905502204608638
5.5105910000056,1.08924093050882
5.51998000000417,-0.0325323434080929
5.52879600000381,0.118326821015216
5.53794400000572,0.0767438462062273
5.54663500000536,0.283691674325382
5.55651200000197,0.484837226889795
5.56488100000471,0.636341088596964
5.57246400000155,1.36581606528489
5.5799130000025,0.0944730215123855
5.58786800000072,0.339780338021228
5.59532100000232,0.0377396605326794
5.60327900000662,0.32108411678928
5.60926900000125,-0.0841081261169165
5.61472100000083,0.320117070863489
5.62112200000137,0.239207561739022
5.6268730000034,0.318505327653838
5.63226000000536,0.708224835747387
5.63832300000638,0.797515409562038
5.6441080000028,0.448734178993618
5.65115100000054,0.702100211550714
5.65714800000191,0.553497487620916
5.66263100000471,0.0790002866997384
5.6688410000056,-0.0841081261169165
5.67471800000221,-0.0128690762503538
5.68065000000596,0.00421540177194402
5.68775200000405,0.0309703390521463
5.69344900000095,0.112524545460474
5.69997700000554,0.141535923234187
5.70642000000179,0.132510161260143
5.71177600000054,-0.0725035750074312
5.71812100000679,-0.0102902871149126
5.72387400000542,0.00582714498159476
5.73043400000036,0.156041612121044
5.73698000000417,0.40908529603621
5.74278100000322,0.135088950395584
5.74896900000423,-0.0183490031631663
5.75504600000381,0.0786779380578082
5.7613030000031,-0.043814545875648
5.76748800000548,0.0831908190448303
5.77325600000471,0.14830524471472
5.77917400000244,-0.0273747651372105
5.78524200000614,0.239852259022882
5.79137200000137,0.0857696081802715
5.79743900000304,-0.103771393274656
5.80399200000614,-0.103771393274656
5.8098580000028,0.0341938254714478
5.81614400000125,0.00034721806878224
5.82293300000578,0.207617394829867
5.82844100000709,-0.085075172042707
5.8345549999997,-0.100547906855354
5.84077300000191,0.162166236317717
5.84663599999994,-0.0460709863691591
5.85322300000489,0.185375338536687
5.8591780000031,-0.129236935987137
5.86483500000089,-0.00900089254719205
5.87179600000381,-0.0441368945175782
5.87732900000364,-0.0418804540240671
5.88411900000274,0.076099148922367
5.89053299999982,-0.00158687378279865
5.89614699999988,-0.102159650065005
5.90303299999982,0.054179441271117
5.90893100000173,0.146693501505069
5.91451000000536,0.0274245039909147
5.92099000000209,0.0332267795456573
5.92665100000054,0.0857696081802715
5.93253000000119,-0.100547906855354
5.93957300000638,0.0831908190448303
5.94492500000447,-0.013191424892284
5.95095400000364,0.0625605059613008
5.95687200000137,0.265962499019224
5.96246300000697,-0.128269890061347
5.96927900000662,0.265962499019224
5.97493100000173,0.0809343785513192
5.98071800000221,-0.00642210341175087
5.98727400000393,-0.0183490031631663
5.99290200000256,0.0148529069556389
5.99882500000298,-0.1127971552487
6.00539800000191,0.211163229891099
6.01177700000256,-0.107317228335887
6.01832100000232,0.0986635538574774
6.02404700000584,0.204393908410566
6.03096400000155,0.173448438785272
6.03713100000471,0.242431048158323
6.04283600000292,0.202459816558985
6.04883900000155,-0.119244128087303
6.0554130000025,-0.093778585374821
6.06197100000083,-0.133105119690299
6.06848200000077,0.095762416080106
6.07482200000435,0.146693501505069
6.08026300000399,0.111557499534683
6.08694000000507,0.0393514037423301
6.09266800000519,0.108978710399242
6.09854800000042,0.0306479904102162
6.10578100000322,0.0918942323769443
6.11260200000554,-0.0944232826586813
6.11943500000238,0.00389305313001387
6.12540900000185,0.150561685208231
6.13147700000554,-0.0492944727884606
6.13819900000095,0.0377396605326794
6.14400700000674,-0.0638001616753172
6.15115900000185,-0.104093741916586
6.15719900000095,0.0441866333712824
6.16302000000328,-0.0973244204360526
6.16984400000423,0.0809343785513192
6.1757860000059,0.21309732174268
6.18113400000334,0.137345390889095
6.1876799999997,0.0274245039909147
6.19315000000596,-0.0621884184656665
6.19946500000358,-0.0718588777235709
6.20541400000453,0.109301059041172
6.21135100000352,-0.0673459967365488
6.21757200000435,-0.0899104016716592
6.22307800000161,0.0580476249742787
6.2303560000062,-0.127302844135556
6.23859400000423,-0.0434921972337179
6.24389800000191,-0.0476827295788098
6.25106700000167,0.0180763933749404
6.25675800000131,0.215031413594261
6.26319400000572,-0.0318876461242326
6.27117700000107,-0.0106126357568428
6.27756600000709,-0.0554190969851334
6.28388500000536,-0.0673459967365488
6.28950800000131,0.119293866941007
6.29571400000155,-0.110540714755189
6.30194100000709,0.0570805790484883
6.30768300000578,0.187631779030198
6.31347100000083,0.012918815104058
6.31979900000244,0.0432195874454919
6.32588900000602,0.10349878348643
6.33164699999988,0.0867366541060619
6.33799300000071,0.0951177187962458
6.343625,-0.0354334811854642
6.35078100000322,-0.0186713518050965
6.35669400000572,0.0174316960910801
6.36224900000542,-0.101192604139214
6.36820300000161,0.0493442116421647
6.37485400000215,0.0574029276904184
6.38067400000244,0.134444253111724
6.38700100000203,0.00389305313001387
6.39337600000203,-0.0115796816826332
6.39978200000524,-0.0115796816826332
6.40679300000519,0.0767438462062273
6.41440799999982,0.0702968733676244
6.4231400000006,0.132832509902073
6.43000200000405,0.124773793853819
6.43715200000256,0.197946935571963
6.44383000000566,-0.032854692050023
6.45142700000107,-0.0831410801911261
6.45833800000697,0.146371152863139
6.46414800000191,0.00518244769773446
6.47172200000286,-0.0412357567402069
6.47774400000274,0.0267798067070544
6.48461000000685,-0.101837301423075
6.49074300000072,0.0899601405253634
6.49633600000292,-0.0963573745102622
6.5034830000028,0.0728756625030655
6.50904800000042,0.164100328169297
6.51559200000018,-0.0608990238979459
6.52219700000435,-0.100225558213424
6.52779300000519,-0.0992585122876335
6.53479900000244,0.00195896127843298
6.5404110000059,0.149916987924371
6.54651300000399,-0.0667012994526885
6.55237900000066,-0.0934562367328908
6.55819800000638,0.0725533138611354
6.56400600000471,-0.0463933350110892
6.57113900000602,0.0615934600355104
6.57693600000441,-0.0212501409405377
6.58266800000519,-0.0995808609295636
6.58948500000685,0.0148529069556389
6.59579600000381,-0.115053595742211
6.60196000000089,-0.0206054436566774
6.60819000000507,0.0967294620058965
6.61442500000447,-0.0799175937718246
6.62038000000268,0.0735203597869258
6.62645800000429,0.161199190391926
6.6319450000003,-0.0141584708180744
6.63885400000215,-0.0673459967365488
6.64485700000077,-0.106994879693957
6.65100800000131,-0.0238289300759789
6.65761900000274,0.158942749898415
6.6632880000025,-0.106994879693957
6.66996200000495,-0.00674445205368102
6.67564699999988,0.19182231137529
6.68156500000507,0.0580476249742787
6.68812200000137,0.114780985953985
6.6941060000062,-0.0257630219275597
6.70034300000221,-0.0380122703209054
6.70693600000441,0.127674931631191
6.7123180000037,-0.104738439200446
6.71900400000066,0.12703023434733
6.72589300000668,0.173770787427202
6.73332500000298,0.180540108907735
6.74070800000429,-0.013191424892284
6.74712700000405,-0.0950679799425416
6.7543200000003,0.0667510383063927
6.76009300000221,0.0422525415197015
6.76665799999982,-0.110218366113259
6.77297900000215,-0.030598251556512
6.77889200000465,0.227603010629537
6.7853030000031,0.0819014244771097
6.79142300000042,0.118326821015216
6.79757300000638,0.0938283242285252
6.80459000000358,0.640531620942056
6.81065200000256,0.528031944908435
6.81752400000393,1.23945539764827
6.82352400000393,0.513848604663508
6.83082200000435,0.172803741501411
6.83778700000048,0.446800087142037
6.8439299999997,-0.0876539611781482
6.85153500000387,0.345904962217901
6.85795600000024,0.762057058949722
6.8639260000065,0.264673104451504
6.87173500000685,0.113169242744334
6.87808600000292,1.03347461545491
6.88411500000209,-0.0489721241465304
6.89100800000131,0.573805452062516
6.89689500000328,0.505467539973324
6.90394200000167,0.0503112575679552
6.91003100000322,1.21366750629386
6.91561800000072,0.906469250534428
6.92267000000179,0.992536337929778
6.92845000000298,0.161521539033856
6.93478299999982,1.28297246430884
6.94093800000101,1.27362435369287
6.94697500000149,2.50757495500147
6.95309400000423,0.920330242137425
6.95901099999994,1.00929846731015
6.9650680000037,1.3413175684982
6.97204100000113,0.316248887160327
6.97792900000513,0.0644945978128817
6.98397200000286,0.987378759658895
6.99057700000703,0.374271642707754
6.99701200000197,1.33615999022732
7.00397000000626,0.543827028363012
7.01024200000614,1.96216105285566
7.01730600000173,2.11044142814353
7.02322000000626,2.52240299253026
7.03023000000417,0.379429220978636
7.03618400000036,2.52723822215921
7.04202100000531,1.52505629439838
7.04811600000411,-0.0766941073525231
7.05471800000221,2.52884996536886
7.06024000000209,2.16298425677815
7.06648900000006,0.848768843628932
7.07335900000483,1.78261285930057
7.07931500000507,2.35897223107168
7.08605200000107,1.51828697291785
7.092,2.5185348088271
7.09792900000513,1.75134504103335
7.10410500000417,0.979964740894502
7.11152800000459,1.32455543911783
7.11914200000465,0.432294398255181
7.1258049999997,1.12373223519535
7.13347100000083,1.41739184799371
7.14070200000703,2.53304049771396
7.1460930000022,1.91251936199842
7.15275500000268,0.577673635765677
7.15910100000352,0.720796432782663
7.16508800000697,2.53948747055256
7.17220900000632,2.54400035153958
7.17879700000584,2.35252525823307
7.18539699999988,2.55334846215555
7.19170800000429,2.52208064388833
7.19824300000072,-0.0138361221761443
7.20446300000697,2.54722383795888
7.21013300000131,0.824270346842241
7.21643100000173,0.402960671839537
7.22292300000042,2.26935930861509
7.23024900000542,1.65109461339307
7.23741000000387,0.752708948333748
7.24328500000387,1.55181123167858
7.2522710000053,1.56277108550421
7.2589299999997,0.447444784425898
7.26522400000691,1.5369831941498
7.27286500000209,0.639886923658196
7.27873600000143,0.93161244460498
7.28596700000018,0.152495777059812
7.29190500000119,0.47484441898996
7.29841000000387,0.128964326198911
7.30552000000328,0.108011664473452
7.31256300000101,1.57921086624265
7.32093600000441,0.60507327032974
7.32768200000376,0.0909271864511538
7.33563700000197,0.420689847145695
7.34215799999982,-0.00738914933754131
7.3486400000006,0.476456162199611
7.35534900000691,0.707902487105457
7.36110500000417,0.27756705012871
7.36803000000119,0.53899179873406
7.37428400000185,0.142502969159978
7.38074300000071,0.210196183965309
7.38721400000155,0.494185337505769
7.39283400000632,0.978997694968712
7.39893500000238,-0.0170596085954458
7.40522800000012,0.318505327653838
7.41141400000453,0.553497487620916
7.41739200000465,0.136378344963305
7.42320700000227,0.163133282243507
7.42890200000256,0.77978623425588
7.43527400000393,0.0632052032451611
7.44140400000662,0.346549659501761
7.44702000000328,0.0583699736162089
7.45356100000441,0.324307603208581
7.45928400000185,-0.11344185253256
7.46482500000298,-0.0554190969851334
7.47134500000626,0.239529910380952
7.47737900000066,0.347194356785621
7.48330600000173,0.0790002866997384
7.49036700000614,-0.0886210071039386
7.49602400000393,0.558010368607938
7.50249500000477,0.32140646543121
7.5089430000037,0.40940764467814
7.51462400000542,0.263383709883783
7.52177500000596,-0.0383346189628355
7.52775300000608,-0.108928971545538
7.53525400000066,0.0154976042394992
7.54140200000256,0.164745025453158
7.54717300000042,-0.0915221448813099
7.55427100000531,-0.0554190969851334
7.56054800000042,0.0416078442358412
7.56718900000304,-0.0779835019202437
7.57345700000227,0.616033124155365
7.57925500000268,0.71402711130213
7.58724300000071,-0.103771393274656
7.59386400000006,0.118649169657147
7.60120500000566,0.274665912351338
7.60732100000232,0.0432195874454919
7.61395600000024,-0.0721812263655011
7.62134300000221,0.00840593411703594
7.62677700000256,-0.067668345378479
7.63383400000632,0.244687488651834
7.64011200000346,-0.104093741916586
7.64637400000542,0.00453775041387416
7.65271400000155,-0.0509062159981113
7.65900400000066,0.19149996273336
7.66534200000018,-0.117632384877652
7.67229300000519,0.221478386432864
7.67896000000089,-0.0086785439052619
7.68587200000137,0.14894994199858
7.69209800000489,-0.0576755374786444
7.69933500000089,-0.106994879693957
7.70611900000274,0.314314795308746
7.71204700000584,-0.109573668829398
7.71893800000101,0.307223125186283
7.72574300000072,0.332688667898765
7.7321760000065,0.244687488651834
7.73897900000215,0.331076924689114
7.74538000000268,-0.0970020717941225
7.75209300000221,-0.0618660698237363
7.75846400000155,0.0567582304065581
7.76471300000697,-0.0592872806882951
7.77224600000679,0.185052989894757
7.7779960000068,0.0886707459576428
7.78437900000066,0.0644945978128817
7.79030600000173,0.261127269390272
7.79582700000703,0.255647342477459
7.80275900000334,0.318827676295768
7.80845700000226,0.270797728648176
7.81400300000608,0.113491591386264
7.82036500000209,-0.0924891908071004
7.82666500000656,-0.0473603809368797
7.83229900000244,-0.0638001616753172
7.83912400000542,0.232115891616559
7.84475900000334,-0.0486497755046003
7.8513900000006,0.00905063140089624
7.8573410000056,0.216965505445842
7.86309600000083,0.114136288670124
7.87002400000393,0.251779158774298
7.87566400000453,-0.126335798209766
7.88234200000018,0.0719086165772751
7.88907200000435,-0.0934562367328908
7.89468900000304,-0.0196383977308869
7.90110300000012,-0.0686353913042694
7.90698900000006,0.174415484711062
7.91238800000399,0.0390290551004
7.91886200000346,0.0293585958424956
7.9249430000037,0.0528900467033964
7.93084500000626,-0.0808846396976151
7.93774900000542,0.144114712369628
7.94351400000602,-0.087331612536218
7.95150900000334,-0.0702471345139202
7.95808800000697,0.588311140949372
7.9643010000065,0.501277007628232
7.97124200000614,0.015175255597569
7.97728500000387,-0.0979691177199129
7.98435100000352,-0.0754047127848025
7.9915,0.276277655560989
7.99797100000083,-0.0824963829072658
8.00431600000709,0.100597645709058
8.01066500000656,-0.0457486377272289
8.01658500000089,-0.110863063397119
8.0232160000056,0.0677180842321832
8.02907100000233,-0.065411904884968
8.03531300000101,-0.0596096293302253
8.04157600000501,0.137667739531025
8.0477880000025,-0.0473603809368797
8.05439800000191,-0.0293088569887914
8.05995100000501,-0.126658146851696
8.06644100000709,-0.106672531052027
8.07268900000304,0.135088950395584
8.07858300000429,-0.024151278717909
8.08529800000042,0.0989859024994075
8.0912860000059,0.138957134098746
8.09766000000387,-0.00223157106665894
8.10420900000632,-0.00158687378279865
8.11075900000334,-0.108284274261678
8.11696900000423,-0.0957126772264019
8.12329700000584,0.1267078857054
8.13024900000542,-0.130526330554858
8.1371780000031,0.0980188565736171
8.14272300000489,0.114458637312055
8.14866000000387,0.00550479633966461
8.15510100000352,-0.0380122703209054
8.16095800000429,-0.124401706358185
8.16676000000536,-0.0560637942689937
8.17272500000149,0.107044618547661
8.17846300000697,0.00163661263650283
8.18498800000548,-0.108606622903608
8.1914660000056,-0.0322099947661627
8.19710200000554,0.0615934600355104
8.20379300000519,0.0899601405253634
8.20986300000548,0.0264574580651242
8.21539200000465,0.0416078442358412
8.22231500000507,0.0171093474491499
8.22800100000203,-0.111507760680979
8.23590400000662,0.0154976042394992
8.24348600000143,-0.0228618841501884
8.25058400000632,-0.0660566021688282
8.25693600000441,0.0290362472005654
8.26236000000685,-0.0712141804397106
8.26915400000662,-0.00835619526333176
8.27535300000012,0.262416663957993
8.2816630000025,-0.0924891908071004
8.28809800000489,-0.0260853705694899
8.29342200000584,-0.126335798209766
8.2991460000053,-0.0273747651372105
8.30596700000018,0.158620401256485
8.3114450000003,-0.0847528234007768
8.31843900000304,-0.0776611532783136
8.32477500000596,0.152173428417882
8.33044900000095,0.0209775311523117
8.33758700000495,0.172803741501411
8.34350500000268,-0.0544520510593429
8.3498900000006,0.0200104852265213
8.35648900000006,0.0164646501652896
8.3618730000034,-0.110218366113259
8.3681799999997,-0.0273747651372105
8.37417500000447,0.0561135331226978
8.37995000000298,0.0525676980614662
8.38636200000346,0.167646163230529
8.39225,0.340747383947019
8.39835000000149,0.499342915776651
8.4051930000037,0.056435881764628
8.41117500000447,-0.030598251556512
8.4175210000053,-0.087331612536218
8.42355800000578,0.154429868911393
8.43063100000471,0.0074388881912455
8.43765000000596,0.119293866941007
8.44345400000364,-0.0828187315491959
8.45043700000644,-0.096035025868332
8.45620500000566,-0.0563861429109238
8.46256100000441,0.322373511357
8.46929500000179,0.0474101197905838
8.47590000000596,0.250489764206577
8.48148400000483,0.200848073349334
8.48865799999982,-0.00577740612789057
8.4946630000025,-0.0718588777235709
8.50163700000197,0.0158199528814293
8.50821400000155,0.248233323713066
8.51368400000036,-0.0322099947661627
8.52059700000286,0.000991915352642536
8.52671000000089,-0.00352096563437954
8.53263700000197,-0.0876539611781482
8.53954800000042,0.265317801735364
8.54525100000203,0.184085943968967
8.55182400000095,0.000991915352642536
8.55788200000674,0.225668918777956
8.56328299999982,-0.102159650065005
8.57078100000322,0.27885644469643
8.57648000000417,-0.0921668421651702
8.5830530000031,-0.0212501409405377
8.58986600000411,0.132510161260143
8.5954280000031,-0.0866869152523577
8.6019430000037,0.138312436814886
8.60768400000036,0.00518244769773446
8.61368600000441,-0.11408654981642
8.6205530000031,0.849413540912792
8.62618200000376,0.551563395769335
8.63209000000358,-0.0473603809368797
8.63851000000536,0.0274245039909147
8.64449900000542,0.10446582941222
8.65040700000525,-0.0396240135305561
8.65678700000048,-0.0795952451298945
8.66287900000066,-0.119888825371163
8.66949100000411,0.121227958792588
8.67546500000358,0.991569292003987
8.68127700000256,0.0561135331226978
8.68778299999982,0.91001508559566
8.69389500000328,0.372337550856173
8.70054100000113,0.109623407683102
8.70677900000662,0.883260148315458
8.71298800000548,1.2739467023348
8.72028400000185,-0.0148031681019347
8.72631500000507,0.397480744926725
8.73197900000214,0.08254612176097
8.73913500000536,0.516105045157019
8.74469000000507,0.00776123683317564
8.75099200000614,-0.104738439200446
8.75721400000155,1.25396108653513
8.76275900000334,2.28450969478581
8.77099300000071,0.306256079260493
8.77690400000662,2.48178706364706
8.78361600000411,2.50531851450796
8.79036300000548,1.85385190916713
8.79595800000429,2.23454565528664
8.80275600000471,1.64690408104798
8.80845900000632,0.147015850147
8.81401700000465,1.24042244357406
8.82110500000417,0.843611265358049
8.82688700000197,2.06563496691524
8.83272800000012,1.71298555264366
8.83902199999988,0.730466892040567
8.84456400000304,1.74618746276246
8.8511950000003,2.37412261724239
8.85772100000083,0.95385450089816
8.86405400000513,2.51627836833359
8.87133200000227,2.19586381825502
8.87686400000006,1.13211329988553
8.88372800000012,2.52917231401079
8.8903180000037,0.500954658986302
8.89582400000095,1.82580757731921
8.90190300000459,1.05539432310616
8.90849300000072,0.500632310344372
8.91440400000662,1.57405328797176
8.92182100000232,0.27950114198029
8.92735000000149,2.52046890067868
8.93418800000101,1.50055779761169
8.9404980000034,2.10754029036616
8.94630900000036,2.52723822215921
8.9531799999997,2.54045451647835
8.95890000000596,0.382975056039868
8.96516600000113,0.824915044126101
8.97181200000644,0.0854472595383413
8.97759800000489,0.275310609635198
8.98378100000322,0.179895411623875
8.98979800000042,1.17337392605259
8.9961760000065,1.87996214916348
9.00243300000578,1.37645357046858
9.00972700000554,2.52272534117219
9.01582400000095,2.04855048889294
9.02252800000459,0.99769391620066
9.02847400000691,2.52788291944307
9.03518400000036,2.54561209474923
9.04171100000292,1.61209042771952
9.04791200000048,2.53852042462677
9.05476800000668,2.54819088388467
9.06078200000525,0.724664616485825
9.0671799999997,0.0374173118907493
9.0732160000056,0.348161402711412
9.0787480000034,0.512236861453857
9.08539300000668,0.819435117213288
9.09176099999994,0.679213457973674
9.09767900000513,0.69178505500895
9.10415900000185,-0.0618660698237363
9.1099680000022,0.264673104451504
9.1158730000034,0.10446582941222
9.12229200000316,0.028069201274775
9.12778700000048,2.36767564440379
9.1343200000003,-0.0531626564916223
9.14018600000441,0.80041654733941
9.14564100000262,0.512559210095787
9.15227500000596,0.761734710307792
9.15795300000161,-0.0805622910556849
9.1639810000062,0.12541849113768
9.17018600000441,0.607329710823251
9.17571000000089,-0.02640771921142
9.18150800000131,1.0473356070579
9.18846700000018,0.593791067862185
9.19431500000507,-0.102481998706935
9.20088500000536,0.215676110878121
9.20686300000548,0.0922165810188744
9.21261700000614,0.333011016540695
9.21906100000441,0.750130159198307
9.22479700000584,0.0635275518870912
9.23038599999994,0.0532123953453265
9.23658100000024,0.261127269390272
9.24262000000477,0.00163661263650283
9.25025700000674,0.62699297798099
9.25655800000578,0.231793542974629
9.26263300000131,0.313347749382956
9.27027800000459,0.293039784941357
9.27593600000441,0.101242342992919
9.28130700000376,-0.098291466361843
9.2879280000031,0.0715862679353449
9.2934299999997,0.0835131676867604
9.2990150000006,0.247588626429206
9.30507800000161,0.021622228436172
9.3105,0.0522453494195361
9.31690700000525,0.166679117304739
9.3230380000025,-0.0425251513079274
9.3291950000003,-0.11440889845835
9.33591899999976,0.0909271864511538
9.34161600000411,0.748518415988656
9.34744100000709,0.463562216522405
9.35422700000554,0.315604189876467
9.3603430000022,-0.0538073537754826
9.36633700000495,0.0828684704029001
9.37263800000399,0.244365140009904
9.3780360000059,0.695008541428251
9.38477500000596,0.133799555827864
9.39058700000495,-0.102159650065005
9.39600600000471,-0.0499391700723208
9.40306600000709,0.289816298522055
9.40872000000626,0.301743198273471
9.41462400000542,-0.0212501409405377
9.4208200000003,-0.0860422179684974
9.42641000000387,-0.0831410801911261
9.43208900000155,-0.0512285646400414
9.43852700000256,0.0212998797942419
9.44472200000286,0.028069201274775
9.45110400000214,0.197302238288103
9.45726700000465,0.303677290125052
9.46287900000066,0.0860919568222016
9.47068800000101,0.00421540177194402
9.47624900000542,-0.0318876461242326
9.48219900000095,0.136378344963305
9.4888200000003,-0.0206054436566774
9.49469400000572,-0.124724055000115
9.50100200000405,0.0696521760837641
9.50705200000107,0.319150024937699
9.51270400000364,0.512236861453857
9.51995500000566,0.028069201274775
9.5262480000034,-0.129881633270998
9.53213000000268,0.21277497310075
9.53876600000262,-0.013191424892284
9.54453299999982,-0.0853975206846371
9.5509980000034,0.156363960762974
9.55699100000411,0.109623407683102
9.56210400000215,-0.0647672076011077
9.57095100000501,0.850058238196652
9.57666500000656,0.385231496533379
9.58271800000221,0.0677180842321832
9.58902900000662,0.225668918777956
9.59465200000256,-0.119566476729233
9.60169600000232,-0.0586425834044348
9.6085,-0.115053595742211
9.61390400000662,-0.0989361636457033
9.62044400000572,0.521907320711762
9.62608400000632,-0.122145265864674
9.63231100000441,0.134121904469794
9.63915300000459,-0.065411904884968
9.64471800000221,-0.0286641597049311
9.65144800000638,0.144759409653489
9.6572180000022,0.0993082511413377
9.66298400000483,-0.0370452243951149
9.67013300000131,0.021622228436172
9.6758200000003,0.0886707459576428
9.68176900000125,-0.11344185253256
9.68870800000429,0.217610202729702
9.69520500000566,-0.105383136484306
9.70149700000137,0.206650348904077
9.70752199999988,0.159265098540345
9.71381500000507,0.238885213097092
9.72078100000322,0.165067374095088
9.72697400000691,0.0100176773266867
9.73369700000435,0.0242010175716132
9.74013800000399,-0.102481998706935
9.7458010000065,-0.021894838224398
9.7533010000065,0.264673104451504
9.7593410000056,0.858116954244906
9.76549400000274,-0.0389793162466958
9.77165100000054,-0.112152457964839
9.77796800000221,-0.116665338951861
9.78486000000686,-0.0663789508107584
9.79090600000322,0.0593370195419993
9.7965510000065,-0.101192604139214
9.80348700000346,0.127997280273121
9.80988000000268,-0.0747600155009422
9.81669000000507,0.0896377918834332
9.82284800000489,0.00195896127843298
9.82983300000429,-0.017704305879306
9.83707200000435,0.0309703390521463
9.84306100000441,-0.124724055000115
9.85046000000089,0.0322597336198669
9.85687700000405,-0.0905550989555195
9.86252400000393,0.429393260477809
9.87096400000155,0.0609487627516501
9.87668900000304,-0.017704305879306
9.88260500000417,-0.0773388046363834
9.88981400000304,0.100275297067128
9.8956400000006,-0.122145265864674
9.90228000000119,0.065139295096742
9.9085530000031,0.0941506728704553
9.9154280000031,-0.0889433557458688
9.92182100000232,0.0545017899130471
9.92753700000048,-0.1127971552487
9.93418800000101,0.0200104852265213
9.94080700000375,0.123162050644169
9.94653200000525,-0.0331770406919532
9.95270200000703,0.333978062466485
9.95871900000423,0.377495129127055
9.96556400000304,-0.1127971552487
9.97241899999976,0.108334013115382
9.97820500000566,0.118326821015216
9.98447000000626,0.0757768002804369
9.99039300000668,0.162810933601577
9.9962310000062,0.0364502659649588
10.0027810000032,0.109301059041172
10.0099900000021,0.00808358547510579
10.0160340000018,-0.111507760680979
10.022501000002,-0.100547906855354
10.0295610000044,-0.0112573330407031
10.0360270000026,0.134444253111724
10.0421230000034,0.23566172667779
10.0482200000063,2.48694268520921e-05
10.0547470000014,0.251134461490437
10.0605260000005,-0.00384331427630968
10.0671960000023,-0.0447815918014385
10.0733280000016,0.240819304948673
10.0790030000061,-0.067668345378479
10.0855100000054,-0.0902327503135893
10.0920280000046,-0.0386569676047657
10.0976660000011,-0.0789505478460342
10.1043780000061,-0.0966797231521923
10.1105500000045,-0.0180266545212362
10.1173730000034,-0.00835619526333176
10.1233990000039,0.218577248655492
10.1290710000023,0.19149996273336
10.1354940000027,0.0883483973157126
10.1418049999997,0.0744874057127163
10.1477370000035,-0.0206054436566774
10.1543080000058,0.102209388918709
10.1599850000069,-0.0712141804397106
10.1656200000048,0.0448313306551427
10.1726100000069,0.012918815104058
10.1787160000056,-0.0976467690779828
10.1855790000036,0.324952300492441
10.1917280000001,-0.0231842327921186
10.1978690000027,0.117359775089426
10.205199000001,0.0557911844807677
10.2109710000008,-0.085075172042707
10.2168740000054,-0.0592872806882951
10.2227700000033,0.217610202729702
10.2294340000004,-0.0112573330407031
10.2363600000069,0.185375338536687
10.2423570000008,0.0148529069556389
10.2482960000038,-0.0276971137791406
10.2547600000054,0.216320808161981
10.2605320000052,-0.0660566021688282
10.2670020000041,0.0577252763323486
10.2729120000005,0.266929544945015
10.2792300000042,-0.125691100925906
10.2863710000068,0.0706192220095545
10.2925650000051,-0.0889433557458688
10.2982580000013,-0.0325323434080929
10.3047040000036,0.14798289607279
10.3103620000035,0.153785171627533
10.3171100000069,-0.109896017471328
10.3232790000066,0.359765953820897
10.3292300000042,-0.0592872806882951
10.3362110000029,-0.111830109322909
10.3419220000058,-0.0409134080982767
10.3509210000038,0.0525676980614662
10.357213000007,0.19214466001722
10.3627440000027,-0.0244736273598392
10.3707410000041,-0.043814545875648
10.3763510000035,0.0296809444844257
10.3827030000016,-0.0970020717941225
10.3890300000012,0.283046977041522
10.3954060000032,-0.0660566021688282
10.4016350000054,-0.0605766752560157
10.4089960000068,0.0490218630002346
10.4150040000007,-0.111185412039049
10.421751000002,0.0535347439872567
10.4279050000012,0.106399921263801
10.4351520000026,-0.0531626564916223
10.4411579999998,0.188598824955989
10.4473840000033,0.217610202729702
10.4541670000032,0.433583792822901
10.4602280000001,-0.0766941073525231
10.4661620000005,-0.0976467690779828
10.4729740000069,0.227603010629537
10.4788910000026,0.12574083977961
10.4847970000058,-0.0235065814340487
10.4912860000059,0.179895411623875
10.4969580000043,-0.0989361636457033
10.5038720000014,0.356542467401596
10.5096080000028,0.4303603064036
10.5157350000069,0.77978623425588
10.5220310000032,0.532544825895457
10.5295190000013,0.666319512296468
10.5367470000014,0.601527435268508
10.5425070000067,0.459371684177313
10.5492520000041,0.0690074787999038
10.5556700000018,0.023878668929683
10.5615400000066,0.25693673704518
10.5690610000044,1.23494251666125
10.5752939999998,1.57082980155246
10.5818969999999,0.189888219523709
10.5883520000055,0.557688019966008
10.5943610000014,1.22785084653879
10.600963000007,0.243075745442184
10.6066980000064,0.575417195272166
10.6127240000069,1.14210610778537
10.6199660000056,1.39676153491018
10.6261090000048,1.18497847716208
10.6332420000061,2.5217582952464
10.6389780000001,2.51337723055622
10.645439000003,-0.11376420117449
10.6522120000049,0.374916339991614
10.6582040000036,0.572838406136725
10.6647240000069,1.7893821807811
10.6711700000018,0.510302769602276
10.6772690000013,0.119293866941007
10.6838420000002,1.78648104300373
10.6898910000026,2.51079844142077
10.6957150000036,0.0167869988072198
10.7029400000051,1.66656734820572
10.7098770000041,2.50596321179182
10.7163780000061,2.00052054124535
10.7226300000027,2.52240299253026
10.7293620000035,2.23422330664471
10.7361310000047,0.806863520178013
10.7431820000038,1.87158108447329
10.7503930000067,0.439386068377644
10.7569710000008,1.74135223313351
10.7627660000026,0.586699397739721
10.7708190000057,2.06789140740875
10.7765470000058,1.26524328900268
10.7823480000049,2.41763968390296
10.7893300000057,2.09110050962772
10.7949800000042,2.528205268085
10.8018590000048,0.163455630885437
10.8082200000063,1.70782797437278
10.814013000004,1.5466536534077
10.8210230000019,2.53948747055256
10.8270910000056,0.19117761409143
10.8340270000026,2.30223887009197
10.8403350000009,0.592179324652534
10.846262000002,0.946762830775697
10.8531460000053,0.161521539033856
10.8591150000021,0.813955190300476
10.866452000007,0.203104513842845
10.8725410000011,-0.0451039404433686
10.8781240000054,0.0793226353416685
10.8845180000067,0.951920409046579
10.890701000005,0.146693501505069
10.896900000006,0.27917879333836
10.9039810000062,0.949341619911138
10.9104590000063,0.326564043702092
10.9165960000008,0.315604189876467
10.9227140000015,0.846834751777351
10.9290520000011,0.0470877711486537
10.9355230000019,0.108656361757312
10.9414600000009,0.494830034789629
10.9478160000071,0.470976235286798
10.9558490000069,0.283046977041522
10.962199000001,0.205038605694426
10.9711230000034,0.272731820499757
10.9772210000008,0.0873813513899222
10.9835100000054,0.00550479633966461
10.9894110000059,0.225668918777956
10.9954540000036,0.0167869988072198
11.002564000003,0.445833041216247
11.0085830000043,0.239529910380952
11.0148530000001,-0.087331612536218
11.0219250000045,-0.0947456313006114
11.0293810000047,0.225346570136026
11.0362850000039,0.504178145405604
11.0426730000004,0.12638553706347
11.0492890000045,0.168613209156319
11.0556400000006,0.534478917747037
11.0612170000002,0.255324993835529
11.0680660000071,-0.030598251556512
11.0747320000008,0.386198542459169
11.0801359999999,0.460983427386964
11.0870970000029,0.0490218630002346
11.0929200000018,0.336556851601927
11.098824000001,-0.035111132543534
11.105638000004,0.230826497048838
11.1111130000055,0.207939743471798
11.1179670000002,0.352674283698434
11.1238820000067,0.0306479904102162
11.1293510000035,-0.0712141804397106
11.1367290000021,0.056435881764628
11.1423570000008,-0.119566476729233
11.1502990000024,-0.0605766752560157
11.156512000002,0.124773793853819
11.1627920000032,-0.00352096563437954
11.1695060000047,0.0113070718944073
11.1753930000067,-0.129881633270998
11.1818700000048,-0.0209277922986075
11.1888650000021,0.0145305583137088
11.1946930000037,-0.0538073537754826
11.2014200000018,0.163455630885437
11.2074340000004,0.349773145921063
11.2136780000031,0.142180620518047
11.2207330000028,0.527709596266504
11.2265040000007,0.194723449152661
11.2324350000024,-0.0799175937718246
11.2389600000009,-0.0934562367328908
11.2446540000066,-0.0518732619239017
11.2512090000063,0.0409631469519809
11.2573500000015,0.0980188565736171
11.263751000002,-0.117310036235722
11.2701420000046,0.25596969111939
11.2764440000057,-0.0605766752560157
11.2824670000002,-0.107961925619747
11.2893360000029,0.0748097543546464
11.2960950000063,-0.111185412039049
11.3030970000029,0.211485578533029
11.3090840000063,0.036772614606889
11.3150960000008,-0.0296312056307215
11.3212900000066,0.220511340507073
11.3269620000049,-0.0521956105658319
11.3333930000067,-0.0670236480946187
11.3396680000052,0.0125964664621279
11.345012000002,-0.122145265864674
11.3515710000023,0.0728756625030655
11.357827000007,-0.0160925626696553
11.3637430000007,-0.0847528234007768
11.3703280000016,0.143470015085768
11.3759250000045,-0.087331612536218
11.3818980000019,-0.0696024372300599
11.3883190000057,0.397158396284794
11.3939170000032,-0.0512285646400414
11.400387000002,-0.0773388046363834
11.4062280000001,0.167968511872459
11.412375,0.0248457148554735
11.4182460000068,0.189565870881779
11.4241200000048,-0.101514952781145
11.4297700000033,-0.0293088569887914
11.4371790000051,0.249200369638857
11.4433010000065,0.0354832200391684
11.4500180000067,0.332043970614905
11.4561030000001,0.220833689149003
11.461824000001,-0.0289865083468612
11.4699760000035,0.14766054743086
11.4756480000019,-0.0744376668590121
11.4820380000025,0.0593370195419993
11.4883790000007,0.00872828275896609
11.494074000001,-0.108928971545538
11.501264000006,0.00292600720422342
11.5073420000002,0.0470877711486537
11.513400000006,-0.123434660432395
11.5202930000052,0.14733819878893
11.5266000000015,-0.134072165616089
11.5345950000063,0.0467654225067236
11.5418400000036,0.137990088172955
11.5487760000005,-0.0254406732856296
11.555887000002,0.0506336062098853
11.5613390000015,-0.0950679799425416
11.5671420000046,-0.0947456313006114
11.5731490000039,0.0657839923806023
11.5791460000053,-0.0812069883395452
11.5855810000002,0.0770661948481575
11.5923280000016,-0.0644448589591775
11.6002060000002,-0.0583202347625047
11.6074060000032,0.12574083977961
11.614125,0.00518244769773446
11.6206270000041,0.210518532607239
11.626074000001,-0.056708491552854
11.6317370000035,-0.0728259236493614
11.638126000002,0.114780985953985
11.6439120000005,-0.087331612536218
11.6497240000069,-0.107317228335887
11.655513000004,0.187631779030198
11.6612240000069,0.0248457148554735
11.667189000003,0.119616215582937
11.6732110000029,0.203749211126706
11.6786790000051,-0.0895880530297291
11.6845720000044,0.12638553706347
11.6906310000047,-0.0364005271112546
11.6959440000057,-0.00674445205368102
11.7022609999999,0.14862759335665
11.7086920000017,-0.0615437211818062
11.7139480000064,-0.0992585122876335
11.7206610000059,0.138312436814886
11.7264340000004,-0.0989361636457033
11.7322270000055,-0.0270524164952803
11.7386320000067,0.0319373849779367
11.7441560000032,-0.116020641668001
11.7499760000035,-0.0725035750074312
11.7561570000052,-0.0434921972337179
11.7617400000021,-0.0196383977308869
11.7699800000042,0.0535347439872567
11.7754960000068,0.153462822985603
11.7808960000053,-0.0318876461242326
11.7872140000015,-0.119244128087303
11.7927190000042,-0.132138073764509
11.7981940000057,-0.0921668421651702
11.8045060000047,0.0528900467033964
11.8100580000058,0.0744874057127163
11.8164290000051,0.0661063410225324
11.8224400000051,0.135088950395584
11.8290300000012,-0.122789963148534
11.8358300000057,0.0580476249742787
11.8422120000049,0.23598407531972
11.8487980000004,0.200525724707404
11.8552140000015,-0.032854692050023
11.8607860000059,-0.119244128087303
11.8669670000002,-0.0447815918014385
11.8728430000022,0.179895411623875
11.8784230000004,0.0806120299093891
11.8848160000071,0.0490218630002346
11.8906870000064,0.0944730215123855
11.8963480000049,-0.0409134080982767
11.9026670000032,0.054179441271117
11.9087660000026,0.0135635123879183
11.9156090000048,-0.0995808609295636
11.9220340000018,0.208262092113728
11.928938000001,-0.0950679799425416
11.9359740000069,0.16893555779825
11.9421240000054,0.019365787942661
11.9486640000045,-0.101514952781145
11.9554970000014,0.175060181994922
11.9613920000046,-0.0573531888367143
11.9677560000047,0.0370949632488191
11.9742900000066,0.282079931115732
11.9810040000007,0.0877037000318523
11.9876799999997,0.0661063410225324
11.9935300000012,-0.0257630219275597
11.9996320000067,-0.0882986584620085
12.006375,0.0802896812674589
12.0120600000024,-0.124724055000115
12.019463000007,0.0525676980614662
12.0253840000033,0.0167869988072198
12.0310180000067,-0.119566476729233
12.0377110000029,0.123484399286099
12.0435510000065,-0.0209277922986075
12.0495230000019,0.177316622488433
12.0558990000039,-0.0573531888367143
12.0613780000061,0.163455630885437
12.0698830000013,-0.0737929695751518
12.0758630000055,0.290783344447846
12.0816410000026,0.272731820499757
12.0894120000005,1.77229770275881
12.0948850000054,-0.119566476729233
12.1017120000049,-0.0928115394490305
12.1079940000027,0.874879083625274
12.1139480000064,0.0574029276904184
12.1207320000008,0.988345805584686
12.1264990000054,0.280468187906081
12.1322540000007,0.0132411637459882
12.1384840000048,0.0267798067070544
12.1439980000034,0.820402163139079
12.1500030000061,0.556398625398288
12.1558170000017,0.647623291064519
12.161275000006,-0.093778585374821
12.1680060000047,0.769793426356046
12.1740490000024,-0.0547743997012731
12.1799750000015,-0.032854692050023
12.1861350000054,1.93218262915616
12.191949000001,1.25299404060934
12.1979720000029,0.511914512811927
12.2047290000021,0.612487289094133
12.2108730000034,0.558977414533729
12.217138000004,0.479034951335052
12.2236280000061,2.49629275253392
12.2297340000048,0.282079931115732
12.2365190000013,0.489672456518747
12.2426590000018,-0.0434921972337179
12.249625,0.262416663957993
12.255514000006,-0.0647672076011077
12.2613590000048,1.97086446618778
12.2700460000038,2.51821246018517
12.2757370000035,0.199881027423544
12.2823100000024,0.289493949880125
12.2895100000054,2.51047609277884
12.2960670000017,0.194078751868801
12.3035940000042,2.52659352487535
12.3103150000051,0.36556822937564
12.3167930000052,2.53336284635589
12.3226440000013,2.52111359796254
12.3283210000023,2.52079124932061
12.3344060000032,0.895187048066873
12.340314000003,1.17176218284294
12.3457700000033,2.13526227357215
12.3525240000039,0.898410534486175
12.3583280000016,2.51756776290131
12.3639079999998,0.827171484619612
12.370625,-0.04800507822074
12.3764810000062,2.5217582952464
12.3830610000044,1.489920292428
12.3889320000038,2.04178116741241
12.3947760000005,0.652136172051542
12.401076000005,2.54109921376221
12.4083060000017,2.52304768981412
12.4148360000029,0.945795784849906
12.4212490000054,0.720151735498803
12.4270180000067,0.755610086111119
12.4330240000039,2.54819088388467
12.4393390000015,2.22616459059645
12.4451710000038,0.171191998291761
12.4514970000014,1.02025832113577
12.4577140000016,1.51377409193083
12.4633320000023,2.53690868141712
12.469824000001,1.42383882083232
12.4756540000066,2.1507350083848
12.4811700000018,0.215353762236191
12.4876750000045,0.373949294065824
12.4936060000062,0.0960847647220362
12.5002390000001,0.218899597297423
12.506324000001,0.229214753839187
12.5122030000016,0.655682007112773
12.518751000002,0.261449618032202
12.5246480000019,0.947729876701487
12.5303390000016,0.635696391313104
12.5366320000067,0.0451536792970728
12.5422480000034,2.51821246018517
12.548525000006,0.546083468856523
12.555763000004,0.397803093568655
12.5619210000038,0.168613209156319
12.5708040000051,0.283691674325382
12.5765990000069,0.0725533138611354
12.584213000007,0.784621463884832
12.590076000005,-0.0115796816826332
12.5957330000028,1.17949855024926
12.6022970000058,0.120260912866797
12.6086060000062,0.424880379490787
12.6149680000022,0.185375338536687
12.6214530000016,0.394579607149353
12.6285150000006,0.189243522239849
12.6346090000048,-0.0357558298273943
12.6406230000034,0.19117761409143
12.6469920000061,0.0396737523842603
12.6531820000038,0.123162050644169
12.6590470000058,-0.0470380322949495
12.6651430000067,0.172803741501411
12.671638000004,-0.0741153182170819
12.6774010000005,0.0470877711486537
12.6831310000047,0.4303603064036
12.6891680000052,-0.0563861429109238
12.694713000007,0.264995453093434
12.7007390000001,0.664063071802957
12.7066560000032,-0.108284274261678
12.712450000003,0.34493791629211
12.7190270000026,-0.0638001616753172
12.7249200000018,0.296585620002588
12.7302040000036,0.302710244199261
12.7370340000018,0.0783555894158781
12.7429930000007,-0.109573668829398
12.7486020000055,0.0886707459576428
12.7548940000013,0.277244701486779
12.7605270000026,0.396836047642864
12.7668720000014,0.0109847232524771
12.7733430000022,0.119616215582937
12.7798980000019,0.0271021553489845
12.7868320000023,0.0967294620058965
12.7923510000035,0.370725807646522
12.7983920000046,-0.0989361636457033
12.804638000004,0.349128448637202
12.8102520000041,-0.0876539611781482
12.8170590000004,-0.0889433557458688
12.822963000007,-0.0573531888367143
12.8297870000005,-0.0863645666104276
12.8363170000017,-0.0418804540240671
12.8420200000033,-0.0879763098200783
12.8493090000004,0.0406407983100507
12.8552490000054,0.176994273846503
12.8609440000057,-0.108928971545538
12.8675790000036,0.128641977556981
12.8736760000065,0.112202196818544
12.8799320000038,0.566069084656192
12.8862880000025,0.282724628399592
12.8921200000048,0.209873835323378
12.8983110000044,0.0483771657163743
12.9054370000064,0.217610202729702
12.9114480000064,0.0780332407739479
12.9174260000065,0.195368146436522
12.9234610000029,0.0796449839835986
12.9293440000042,0.0860919568222016
12.9358980000019,0.121550307434518
12.9420690000057,-0.0857198693265673
12.9488430000022,-0.0705694831558503
12.9556600000039,0.175382530636853
12.9611490000039,-0.0196383977308869
12.9675080000013,0.212130275816889
12.9741910000071,0.338168594811577
12.9796340000033,0.195368146436522
12.9863100000024,0.196979889646173
12.9922350000069,0.10349878348643
12.9979980000034,-0.110540714755189
13.004577000007,-0.024151278717909
13.0102030000016,0.202782165200915
13.0168530000001,-0.0128690762503538
13.022889000006,0.219544294581283
13.0291359999999,-0.0276971137791406
13.0362740000039,0.0970518106478266
13.0419950000048,-0.0115796816826332
13.0494070000052,0.0100176773266867
13.0557660000026,0.382652707397938
13.0612880000025,0.00776123683317564
13.0696740000024,-0.11247480660677
13.0754110000059,-0.0486497755046003
13.0810540000051,-0.0966797231521923
13.0884760000035,0.255002645193599
13.0944370000064,-0.0995808609295636
13.1008040000051,-0.0338217379758134
13.1066870000064,-0.131171027838718
13.112575000003,-0.0164149113115855
13.1195580000058,-0.0792728964879643
13.1250600000024,-0.067668345378479
13.1308300000057,-0.0950679799425416
13.1376720000058,0.199236330139684
13.1440900000036,0.178283668414224
13.1509180000052,-0.0447815918014385
13.157512000002,0.200203376065474
13.1634560000002,-0.0309206001984421
13.1695310000032,0.118649169657147
13.1762609999999,-0.0405910594563466
13.1821660000011,-0.0322099947661627
13.1885570000038,0.204716257052496
13.1943680000007,-0.0344664352596737
13.2003490000069,0.0206551825103816
13.2062240000069,0.281112885189941
13.2121090000048,0.108334013115382
13.2182200000063,-0.0444592431595083
13.2242080000043,0.0748097543546464
13.2296490000039,-0.00223157106665894
13.2360840000063,0.216643156803912
13.2418360000029,0.0883483973157126
13.2487440000027,-0.0251183246436995
13.2551340000033,0.0744874057127163
13.2607310000062,-0.0789505478460342
13.2670170000046,-0.00674445205368102
13.2732070000023,0.114136288670124
13.2789090000018,-0.123757009074325
13.2857180000022,0.21374201902654
13.291327000007,-0.0499391700723208
13.296827000007,0.0583699736162089
13.3030290000066,-0.0921668421651702
13.308449000001,0.0783555894158781
13.3147210000008,-0.0286641597049311
13.3213600000069,-0.0383346189628355
13.3270400000066,0.0406407983100507
13.3333830000013,0.0158199528814293
13.3396400000006,0.113169242744334
13.345950000003,-0.0821740342653356
13.3521010000035,0.0203328338684514
13.3578490000069,0.0406407983100507
13.364262000002,-0.0841081261169165
13.3701100000069,0.00905063140089624
13.3756860000044,-0.111185412039049
13.3818790000007,-0.0608990238979459
13.388313000001,0.268541288154665
13.3939790000021,-0.127302844135556
13.3998530000001,-0.000297479215078056
13.4056359999999,0.108011664473452
13.411199000001,0.196012843720382
13.4174040000066,0.0370949632488191
13.4237400000021,0.0319373849779367
13.4294090000018,-0.0019092224247288
13.4354120000005,0.0393514037423301
13.4414750000015,-0.00674445205368102
13.4481900000051,-0.105705485126236
13.4546770000011,0.0235563202877529
13.460262000002,0.347516705427552
13.466512000002,-0.0970020717941225
13.4724890000001,0.23437233211007
13.4777100000009,-0.0915221448813099
13.484001000002,0.0377396605326794
13.4899400000051,0.117682123731356
13.4957740000039,-0.0505838673561811
13.5024970000014,0.223734826926375
13.508688000001,-0.101514952781145
13.5144230000004,0.0893154432415031
13.5209970000014,-0.0167372599535156
13.5264890000001,-0.0702471345139202
13.5331100000069,2.48694268520921e-05
13.5390030000061,0.252746204700088
13.544699000001,-0.039301664888626
13.5515350000039,0.0983412052155472
13.5576540000066,0.00195896127843298
13.5641050000042,0.139924180024536
13.5705420000032,0.0561135331226978
13.5764030000046,-0.0412357567402069
13.5830040000007,-0.0950679799425416
13.5894470000044,-0.104738439200446
13.5955310000032,-0.122789963148534
13.6017790000066,0.0222669257200323
13.6075950000063,0.0686851301579736
13.6137490000054,-0.0957126772264019
13.6201860000044,0.111879848176613
13.6261440000013,-0.00835619526333176
13.6325320000052,-0.111830109322909
13.6387550000027,0.133477207185933
13.6448350000009,-0.0834634288330562
13.6519460000023,0.049988908926025
13.6581750000045,0.172803741501411
13.6641960000023,0.432939095539041
13.670700000003,0.0222669257200323
13.6769990000054,-0.116987687593792
13.683513000004,0.0441866333712824
13.6900450000018,0.314314795308746
13.6967810000032,0.275632958277129
13.7045320000052,0.0699745247256942
13.7117180000022,0.0251680634974036
13.7196230000034,0.000991915352642536
13.726887000002,-0.0683130426623393
13.7342980000004,0.128641977556981
13.7412820000052,-0.0947456313006114
13.7489850000069,0.306578427902423
13.7563530000001,0.49547473207349
13.7630290000066,0.238885213097092
13.7705200000033,0.0345161741133779
13.7773600000069,0.391678469371982
13.7847050000057,0.0757768002804369
13.7918550000042,-0.0712141804397106
13.7991300000027,0.0622381573193707
13.8062370000035,1.28716299665393
13.8133720000014,-0.0325323434080929
13.8211400000006,0.199236330139684
13.8281280000061,0.152818125701742
13.8353740000054,0.867787413502811
13.8423030000031,0.281435233831871
13.8499060000032,0.112202196818544
13.8568060000017,0.14733819878893
13.8638660000041,0.414887571590953
13.8711600000039,0.295296225434868
13.8782340000048,0.67018769599963
13.8853120000064,0.216965505445842
13.8924160000011,0.381363312830217
13.8997140000016,-0.00545505748596042
13.9064880000055,1.9850478064327
13.9125100000054,0.0409631469519809
13.919075000003,1.20367469839402
13.9254050000012,0.0516006521356758
13.9311920000017,2.05531981037348
13.9377410000041,1.84804963361239
13.9438090000004,1.9615163555718
13.9505080000013,1.86287767114118
13.956889000006,2.50531851450796
13.962887000002,2.51498897376587
13.9695270000026,1.49894605440204
13.975637000002,0.14766054743086
13.9815890000016,2.53046170857851
13.9886170000061,2.52046890067868
13.994700000003,2.52046890067868
14.001950000003,2.53271814907202
14.0080860000029,1.50926121094381
14.0147200000063,0.243398094084114
14.0215160000026,0.0896377918834332
14.0281050000042,-0.0451039404433686
14.0350970000029,1.73393821436912
14.0410870000049,1.10084548161831
14.0493510000035,2.3634851120587
14.0559260000065,2.52369238709798
14.0620960000008,0.284014022967312
14.069126000002,1.10374661939568
14.0756870000064,2.52079124932061
14.0816820000038,2.06079973728629
14.088439000003,1.07731403075741
14.0950910000056,2.53175110314623
14.1018320000023,2.54303330561379
14.1085329999998,2.52337003845605
14.1152440000027,2.54142156240414
14.1217040000036,1.314562631218
14.1281579999998,2.53594163549133
14.1351710000038,2.54722383795888
14.1415030000061,-0.00545505748596042
14.1488960000053,1.64851582425763
14.1554850000069,-0.0757270614267327
14.1615400000066,-0.0638001616753172
14.1692170000002,0.832329062890494
14.1758340000063,1.0505590934772
14.1823290000036,0.00776123683317564
14.1886630000025,0.424558030848857
14.1950150000006,0.793324877216946
14.2015950000063,1.02025832113577
14.2086280000061,-0.0783058505621739
14.2148650000021,0.597336902923416
14.2217550000027,0.592179324652534
14.2281160000041,0.711125973524759
14.2353300000057,0.0976965079316869
14.2412920000032,-0.0944232826586813
14.2482210000008,1.22301561690983
14.2552250000015,0.927099563617958
14.2611480000019,0.469686840719078
14.2690100000054,0.451635316770989
14.2753170000017,0.323985254566651
14.2818340000063,1.09053032507654
14.2883600000069,0.328175786911743
14.2945790000036,0.53995884465985
14.3010410000011,0.456792895041872
14.3081930000037,1.02187006434542
14.3142210000008,0.940960555220954
14.3209210000038,0.478712602693122
14.3283740000054,0.443898949364666
14.3349930000007,0.0941506728704553
14.3414830000028,0.288849252596265
14.3478430000022,0.0867366541060619
14.3554120000005,0.808152914745733
14.3622800000012,0.379429220978636
14.369074000001,0.473232675780309
14.3763610000014,0.0951177187962458
14.3827360000014,0.10543287533801
14.3890890000015,-0.0950679799425416
14.3958070000038,-0.0521956105658319
14.4020620000064,0.442931903438875
14.4084340000004,-0.0383346189628355
14.4145480000004,-0.0470380322949495
14.4210660000071,0.0103400259686168
14.428076000005,-0.0857198693265673
14.4344970000014,0.111879848176613
14.440626000002,-0.0341440866177436
14.4464440000057,0.00034721806878224
14.4533049999997,-0.0941009340167511
14.4593200000003,-0.0148031681019347
14.4658440000042,0.0242010175716132
14.4720170000046,0.0258127607812639
14.4779050000012,-0.115698293026071
14.4843190000057,0.100597645709058
14.4908290000036,-0.0995808609295636
14.4967430000007,-0.11440889845835
14.503826000005,0.0596593681839295
14.5096120000035,-0.0550967483432032
14.5165970000029,-0.0364005271112546
14.5229120000005,-0.0518732619239017
14.5285560000017,2.48694268520921e-05
14.5358220000044,0.209873835323378
14.5419189999998,0.276922352844849
14.5481140000001,0.121872656076448
14.5549670000002,0.00582714498159476
14.5610830000043,-0.106027833768167
14.5690460000038,0.00905063140089624
14.5753740000054,-0.0193160490889568
14.5813830000013,-0.108928971545538
14.5881469999999,0.16990260372404
14.5942390000001,0.180540108907735
14.6009730000049,-0.0254406732856296
14.6079010000005,0.0777108921320178
14.6143470000029,0.215353762236191
14.6210670000017,0.0596593681839295
14.6290100000054,0.120260912866797
14.6350960000008,0.228247707913397
14.641513000004,-0.126013449567836
14.6486510000005,-0.102481998706935
14.6556610000059,0.19182231137529
14.661650000006,-0.0863645666104276
14.6687719999999,0.241141653590603
14.6746600000039,0.341714429872809
14.6805400000066,-0.0760494100686628
14.687014000006,0.232438240258489
14.6935410000011,-0.120533522655023
14.7002590000033,0.236951121245511
14.7061020000055,-0.0599319779721554
14.7119020000026,-0.0428474999498576
14.7184240000024,-0.00158687378279865
14.7246140000001,-0.0860422179684974
14.7307840000018,0.0983412052155472
14.7378580000028,-0.0641225103172474
14.7440390000045,-0.127947541419417
14.750825000003,0.193756403226871
14.7570530000031,0.0161423015233595
14.762763000004,-0.122789963148534
14.7693660000041,0.199558678781614
14.7753400000036,0.291428041731706
14.7816920000017,0.354608375550015
14.7882790000066,0.10511052669608
14.7944410000071,-0.015447865385795
14.8009370000064,0.0548241385549773
14.8080310000032,-0.0170596085954458
14.814588000007,-0.0860422179684974
14.8210730000064,0.23598407531972
14.8283290000036,-0.0586425834044348
14.8348280000016,0.133477207185933
14.8407760000005,-0.101514952781145
14.8485930000022,-0.0209277922986075
14.8552520000041,0.111879848176613
14.8615150000006,-0.0592872806882951
14.8689310000017,-0.110863063397119
14.8750280000046,-0.130203981912928
14.8810430000052,0.00324835584615357
14.8883530000001,0.141535923234187
14.8944180000052,-0.126013449567836
14.901074000001,0.214386716310401
14.9071220000014,-0.116665338951861
14.9132250000015,0.00647184226545505
14.9199370000064,0.0667510383063927
14.9259450000003,-0.0518732619239017
14.9318770000041,0.0190434393007308
14.9387410000041,0.0154976042394992
14.9451750000045,0.00486009905580431
14.9517090000063,0.17022495236597
14.9578150000051,-0.061221372539876
14.9639210000038,-0.0831410801911261
14.9706620000005,-0.0596096293302253
14.9766950000003,-0.129236935987137
14.9841050000042,0.185052989894757
14.9903590000048,-0.108606622903608
14.9960060000047,-0.122789963148534
15.0032170000002,0.0496665602840949
15.009199000001,-0.101837301423075
15.0165090000033,-0.0202830950147472
15.0226070000008,-0.041558105382137
15.0289170000032,-0.0518732619239017
15.0357170000002,-0.0731482722912915
15.0417180000022,-0.103126695990795
15.0479210000038,-0.0895880530297291
15.0547300000042,0.0103400259686168
15.0609980000034,0.00389305313001387
15.068963000007,-0.0483274268626701
15.075213000007,0.0122741178201977
15.0814290000051,0.0287138985586353
15.0882609999999,0.136055996321375
15.0946650000066,-0.122467614506604
15.1014670000002,0.0606264141097199
15.1079340000004,0.157653355330694
15.1137390000001,0.146371152863139
15.1201980000064,0.216965505445842
15.1258420000002,-0.119888825371163
15.1315180000067,-0.04800507822074
15.1381620000005,0.0709415706514847
15.1440670000017,-0.0821740342653356
15.1501560000032,0.117359775089426
15.1564690000042,0.153140474343672
15.1623210000023,0.237595818529371
15.1685870000049,0.054179441271117
15.1748830000013,-0.000619827857008204
15.1807890000045,-0.0570308401947841
15.1882710000053,-0.123112311790464
15.1943740000054,-0.114731247100281
15.2017680000067,0.0525676980614662
15.2082710000053,-0.11408654981642
15.2145780000016,0.0445089820132125
15.2211140000001,-0.000619827857008204
15.2277860000059,-0.0209277922986075
15.2351700000018,0.0909271864511538
15.2414850000069,-0.120211174013093
15.248251000002,0.23437233211007
15.2547530000061,0.202782165200915
15.2606850000024,0.107044618547661
15.2697840000018,0.121227958792588
15.2758330000043,0.420045149861835
15.2826359999999,0.88938477251213
15.2890180000067,-0.106672531052027
15.2950420000032,0.132832509902073
15.301588000007,0.127352582989261
15.308001000002,-0.0128690762503538
15.3145710000023,0.335912154318066
15.3214570000023,0.724019919201965
15.327889000006,0.802672987832921
15.3350350000039,-0.00287626835051924
15.3411590000018,-0.122145265864674
15.3477470000014,1.11535117050516
15.3544070000052,0.114780985953985
15.3605410000011,0.54028119330178
15.3667270000055,0.974162465339759
15.3730780000016,1.40772138873581
15.3794070000052,0.864886275725439
15.3857310000062,0.4538917572645
15.3917290000021,0.935480628308142
15.3980530000031,1.44317973934812
15.4049600000009,0.467108051583637
15.4111630000025,0.620223656500457
15.4174299999997,0.423913333564997
15.4237670000046,0.861340440664208
15.4294440000057,0.919040847569704
15.4363780000061,0.578640681691468
15.4423190000057,1.60209761981969
15.4484640000016,0.825559741409961
15.4551720000058,0.19182231137529
15.4612900000066,2.5014503308048
15.468764000006,0.422301590355346
15.4748610000014,-0.0895880530297291
15.4808560000062,0.594113416504115
15.4884790000021,2.30094947552425
15.4942670000046,1.38096645145561
15.5013969999999,2.51789011154324
15.5081000000015,1.44511383119971
15.5148120000064,1.15080952111748
15.5214640000015,2.45890031007002
15.5273460000008,0.0844802136125509
15.5338520000055,0.34461556765018
15.5399130000025,2.30481765922741
15.5462920000032,0.753031296975678
15.5529620000049,2.28741083256318
15.5590340000018,2.50918669821112
15.5652080000043,2.5314287545043
15.5717600000054,2.13300583307864
15.5777600000054,0.64923503427417
15.5841330000013,2.53046170857851
15.590388000004,1.48057218181202
15.5963120000064,2.52562647894956
15.6028150000051,2.52949466265272
15.6088049999997,0.348483751353342
15.6148100000024,1.44801496897708
15.6216130000055,2.52208064388833
15.6280960000008,2.52272534117219
15.6346920000017,2.53529693820747
15.6408390000016,2.51434427648201
15.6478500000015,0.357509513327386
15.6550410000011,0.356220118759666
15.6611130000055,2.52337003845605
15.6686960000023,1.3210096040566
15.674938000001,2.40861392192892
15.6808440000042,1.07280114977038
15.6883520000055,0.64891268563224
15.6944370000064,0.482580786396284
15.7010810000002,0.162166236317717
15.7081680000052,0.317860630369978
15.7144160000011,0.117037426447496
15.7214070000052,0.142180620518047
15.7273460000008,1.44898201490287
15.7348180000037,0.162166236317717
15.741077000007,0.19246700865915
15.7485400000066,0.437129627884133
15.7556120000035,0.476456162199611
15.7613730000034,0.261127269390272
15.7688430000022,0.799771850055549
15.7746920000017,0.0754544516385067
15.7807820000052,0.587021746381652
15.7879530000016,0.21277497310075
15.7940730000064,-0.098291466361843
15.8005240000039,0.156363960762974
15.8077440000027,0.145404106937349
15.8139940000027,0.134121904469794
15.8206950000003,0.0209775311523117
15.8282060000002,0.440675462945364
15.8347540000007,0.656326704396633
15.8406750000045,0.686627476738067
15.8483440000042,1.21108871715842
15.8546130000055,0.596369856997626
15.8606280000061,0.354608375550015
15.867939000003,0.463239867880475
15.8747310000062,-0.0173819572373759
15.8804870000035,0.0603040654677898
15.8881680000052,0.366857623943361
15.894076000005,0.263383709883783
15.9003320000023,0.328175786911743
15.9067740000039,-0.114731247100281
15.912949000001,-0.078628199204104
15.9201430000067,0.0229116230038926
15.9258410000056,0.323985254566651
15.9316010000035,0.557688019966008
15.9385030000061,0.00582714498159476
15.944625,0.119293866941007
15.9519800000042,-0.0518732619239017
15.9578490000069,0.036772614606889
15.9637580000013,0.166356768662808
15.9706490000039,0.193756403226871
15.9762680000067,0.233727634826209
15.9824470000044,-0.0683130426623393
15.9887260000035,0.339135640737368
15.9944250000045,0.346549659501761
16.0011310000047,0.242753396800254
16.0074840000048,0.186020035820547
16.0133230000064,0.0857696081802715
16.0197770000026,0.0996305997832678
16.0257980000004,-0.0370452243951149
16.0325050000027,-0.0570308401947841
16.038838000007,0.151206382492092
16.0450360000059,-0.116665338951861
16.0514320000038,0.067395735590253
16.0575050000027,0.144114712369628
16.0636850000024,-0.0373675730370451
16.070375,-0.0254406732856296
16.077063000001,-0.00900089254719205
16.083400000006,0.25661438840325
16.089637000002,0.00228130992036313
16.0954330000058,0.0222669257200323
16.1024270000011,0.0525676980614662
16.1083530000001,0.149916987924371
16.1144850000069,0.19149996273336
16.1211040000021,0.177316622488433
16.1273810000047,0.0996305997832678
16.1335109999999,0.0993082511413377
16.1399850000069,0.290783344447846
16.1457120000049,0.282724628399592
16.1525890000015,-0.109251320187468
16.1585470000058,-0.0167372599535156
16.1643830000013,-0.0934562367328908
16.1708810000047,0.264028407167643
16.1765430000052,0.579607727617258
16.1828680000007,0.631828207609942
16.1889740000069,0.23533937803586
16.1945910000056,-0.0141584708180744
16.2014750000015,0.153140474343672
16.2076270000041,-0.093778585374821
16.2131550000012,-0.107317228335887
16.2200780000016,0.0896377918834332
16.2264060000032,-0.0199607463728171
16.2323960000053,-0.043814545875648
16.2383020000011,0.237918167171301
16.2439410000071,0.283691674325382
16.2501920000017,-0.0934562367328908
16.2563720000014,0.139279482740676
16.2618910000026,-0.0899104016716592
16.2681520000026,0.0509559548518155
16.2737120000049,0.290783344447846
16.2792790000066,0.32140646543121
16.2857090000063,0.130576069408562
16.2914420000017,-0.0499391700723208
16.297514000006,0.117037426447496
16.3037770000026,0.332366319256835
16.3095930000022,0.207617394829867
16.3155590000004,-0.0905550989555195
16.3216730000004,0.0838355163286906
16.3277170000002,-0.0431698485917877
16.3338020000011,0.106399921263801
16.3400390000045,-0.0157702140277252
16.3458940000013,-0.0499391700723208
16.3519980000034,0.479357299976982
16.3579410000071,0.157975703972625
16.3639850000069,-0.105060787842376
16.370327000007,-0.106994879693957
16.3761300000027,-0.116020641668001
16.3820030000061,-0.087331612536218
16.388150000006,0.326564043702092
16.3941220000014,0.219221945939353
16.4003330000043,0.0915718837350141
16.4086930000037,0.0187210906588007
16.4149880000055,-0.109251320187468
16.4214480000064,0.167646163230529
16.4278690000027,0.0293585958424956
16.433949000001,0.233405286184279
16.4400350000039,-0.133105119690299
16.4455,-0.0931338880909607
16.4524730000049,0.0490218630002346
16.4584740000069,-0.056708491552854
16.4643640000001,0.00163661263650283
16.4711320000067,0.137023042247165
16.4769040000066,2.48694268520921e-05
16.4829660000056,-0.0824963829072658
16.4891490000039,0.0516006521356758
16.4948490000069,-0.125046403642045
16.5014700000063,0.0061494936235249
16.5074750000015,-0.076371758710593
16.5137350000069,0.0441866333712824
16.520188000001,0.0364502659649588
16.5259360000044,-0.128914587345207
16.5327829999998,0.047732468432514
16.5387800000012,-0.041558105382137
16.5444650000036,0.262739012599923
16.5507420000061,0.0183987420168705
16.5568620000035,0.102209388918709
16.5631120000035,-0.0173819572373759
16.5696090000048,0.208906789397588
16.5761730000004,-0.0760494100686628
16.5823150000051,-0.104738439200446
16.5885430000052,0.138312436814886
16.5944430000037,-0.0402687108144164
16.6012770000026,0.0225892743619625
16.6074940000027,-0.0322099947661627
16.6140830000043,0.0125964664621279
16.620639000006,-0.0122243789664935
16.628188000001,-0.1127971552487
16.6341930000037,0.0722309652192052
16.6401980000064,0.0351608713972382
16.6460100000054,-0.121822917222744
16.6523920000046,0.0693298274418339
16.6580980000049,-0.0986138150037732
16.6639770000055,0.0557911844807677
16.6707270000055,0.141858271876117
16.6768440000042,-0.0634778130333871
16.683,0.0893154432415031
16.6893610000014,-0.0492944727884606
16.6953840000033,-0.0534850051335525
16.7016700000018,0.198913981497753
16.708327000007,-0.123757009074325
16.7158770000041,-0.061221372539876
16.7231860000044,0.508046329108765
16.7296700000018,0.021622228436172
16.7364950000048,0.065139295096742
16.7425390000045,-0.0779835019202437
16.7482400000021,-0.0824963829072658
16.754388000004,0.161843887675786
16.760213000007,-0.0905550989555195
16.768201000005,-0.0373675730370451
16.7743480000049,0.124451445211889
16.7800510000065,0.0606264141097199
16.7863790000007,-0.0638001616753172
16.7919820000008,0.0728756625030655
16.7983440000042,0.135733647679444
16.8051710000038,0.0712639192934148
16.8118940000013,0.131220766692422
16.8186700000018,0.593468719220255
16.8248290000036,0.642143364151707
16.8311770000011,1.59210481191985
16.8377250000015,0.0138858610298485
16.8436810000017,0.156041612121044
16.8502710000053,-0.0621884184656665
16.856452000007,1.37097364355577
16.8623170000017,0.132510161260143
16.8688290000036,1.18755726629752
16.8750660000071,0.0242010175716132
16.8814900000021,0.51739443972474
16.8882350000069,0.0767438462062273
16.8946720000058,0.915817361150403
16.9012280000001,-0.0715365290816408
16.9080620000064,2.01438153284835
16.914137000002,0.290138647163985
16.921064000003,0.84586770585156
16.9272340000048,0.423268636281136
16.9335520000011,1.26975616998971
16.9401610000059,0.151851079775952
16.9466040000021,0.97609655719134
16.9537790000066,1.7935727131262
16.9608360000029,1.69590107462136
16.9686050000042,1.59500594969722
16.9751430000067,1.24106714085792
16.9822960000038,1.69686812054715
16.9887910000011,0.754320691543398
16.9946290000007,0.0142082096717786
17.0018190000057,0.47355502442224
17.0080450000018,0.117682123731356
17.0140790000036,1.40159676453914
17.0212270000055,0.638275180448545
17.027450000003,1.79776324547129
17.0343690000027,1.51441878921469
17.040775000006,0.360410651104758
17.0480350000039,0.14862759335665
17.0547650000006,0.0503112575679552
17.0611480000019,-0.0347887839016039
17.0682820000052,0.499665264418582
17.0744980000034,2.38604951699381
17.0804820000008,2.43665825377684
17.087588000007,1.94282013433985
17.093713000007,2.51627836833359
17.1005549999997,0.664707769086817
17.1074750000015,0.384586799249519
17.113326000005,0.486448970099445
17.1206170000061,-0.0721812263655011
17.127564000003,1.94894475853653
17.1347609999999,1.42222707762267
17.1409420000017,2.51079844142077
17.1471240000054,2.53239580043009
17.1538010000065,2.52723822215921
17.159764000006,1.83064280694816
17.166126000002,2.54367800289765
17.1726180000007,0.032582082261797
17.1784640000016,0.182474200759316
17.1849299999997,0.58379825996235
17.1912030000016,0.854571119183674
17.1970920000002,-0.0289865083468612
17.2043969999999,0.708869533031248
17.2108400000036,-0.0667012994526885
17.2172810000032,0.223090129642515
17.2234720000029,0.538669450092129
17.2296730000004,0.219866643223213
17.2361430000067,0.427781517268158
17.2421359999999,0.294651528151007
17.2491689999998,-0.0663789508107584
17.255314000003,0.112846894102404
17.2610549999997,0.277244701486779
17.2679420000017,0.417144012084464
17.2740600000024,0.306578427902423
17.2803030000031,-0.093778585374821
17.2876950000003,0.976741254475201
17.2939299999997,1.00800907274242
17.3002070000023,0.227925359271467
17.3074079999998,0.598948646133067
17.3135600000024,-0.0615437211818062
17.3203980000019,0.279823490622221
17.3274299999997,-0.0318876461242326
17.3339910000041,-0.000619827857008204
17.3401790000051,0.0735203597869258
17.3473540000021,0.607652059465181
17.3541320000067,0.433261444180971
17.3601579999998,-0.100547906855354
17.3676340000033,-0.0422028026659973
17.3741340000033,0.572193708852865
17.3803049999997,0.195690495078452
17.3879270000011,0.188276476314059
17.394075000003,-0.11440889845835
17.4003710000068,0.469686840719078
17.4074220000058,0.412308782455511
17.4134860000014,0.128964326198911
17.4201650000066,-0.0821740342653356
17.4276980000064,0.380718615546357
17.4353120000064,0.0283915499167051
17.4418100000024,-0.00609975476982072
17.4477280000001,0.0383843578165397
17.4547340000048,0.196979889646173
17.4607370000035,0.49547473207349
17.4683080000058,0.184408292610897
17.4744660000056,0.012918815104058
17.4806440000013,-0.0812069883395452
17.4877210000008,0.206972697546007
17.4934770000055,-0.0905550989555195
17.4999079999998,0.144437061011558
17.5073580000028,-0.0608990238979459
17.5134350000024,-0.035111132543534
17.5207150000036,0.215353762236191
17.5267960000038,-0.104738439200446
17.534075000003,0.145404106937349
17.5402710000053,-0.0792728964879643
17.5473830000013,0.327853438269813
17.5542150000036,-0.0299535542726517
17.5606170000061,-0.0225395355082583
17.5690960000008,0.0486995143583044
17.5758950000033,-0.0799175937718246
17.5832320000008,-0.00287626835051924
17.589264000006,0.162488584959647
17.5960420000032,0.0873813513899222
17.6030080000013,0.337846246169647
17.6093840000033,-0.0886210071039386
17.6166430000067,0.141858271876117
17.6230780000016,0.56123385502724
17.6293470000029,0.0835131676867604
17.6361060000062,2.48694268520921e-05
17.6430200000033,-0.107961925619747
17.6494720000029,-0.103449044632725
17.6555530000031,0.206972697546007
17.6621870000064,-0.101837301423075
17.6686689999998,0.113491591386264
17.6749220000058,-0.0999032095714938
17.6819360000044,0.0470877711486537
17.6886230000034,0.187631779030198
17.6952140000015,-0.0486497755046003
17.7028350000009,0.202137467917055
17.7089780000001,-0.128914587345207
17.7157690000013,-0.0331770406919532
17.7224440000057,-0.119888825371163
17.7282990000024,0.25629203976132
17.735763000004,0.206972697546007
17.7415920000002,-0.098291466361843
17.7478770000041,-0.0957126772264019
17.7545070000067,0.205360954336356
17.7606300000027,-0.0928115394490305
17.7683550000042,0.12638553706347
17.7743420000002,-0.0692800885881297
17.7810240000039,0.0925389296608046
17.7877609999999,-0.00319861699244939
17.7936340000033,0.0551464871969074
17.800451000005,0.231793542974629
17.8063960000053,-0.0570308401947841
17.8124700000063,-0.0644448589591775
17.8191570000052,0.0686851301579736
17.825327000007,0.175060181994922
17.8313110000044,-0.0296312056307215
17.8375040000007,-0.104738439200446
17.8437970000058,0.0277468526328448
17.8510270000026,0.182151852117386
17.8567410000041,0.0235563202877529
17.8626200000048,-0.11311950389063
17.8697280000001,0.111235150892753
17.8759410000071,-0.0396240135305561
17.8823790000007,-0.0444592431595083
17.8885150000006,0.568325525149703
17.8945850000009,0.146693501505069
17.900639000006,0.0345161741133779
17.9077050000057,-0.0618660698237363
17.9135510000065,-0.0309206001984421
17.9200970000029,0.14766054743086
17.9272740000039,-0.0992585122876335
17.9337310000062,0.194723449152661
17.9397850000039,0.0203328338684514
17.9476420000046,-0.102804347348865
17.9545800000057,0.131865463976283
17.9614060000032,-0.11408654981642
17.9699940000027,0.282079931115732
17.9762930000052,0.0209775311523117
17.9829330000058,-0.0628331157495268
17.9890240000039,0.174737833352992
17.9947330000028,-0.0463933350110892
18.0022980000004,0.242431048158323
18.0082580000013,-0.0260853705694899
18.0140100000054,0.00486009905580431
18.0211080000028,0.288204555312404
18.0274130000025,-0.0638001616753172
18.0342290000021,0.0441866333712824
18.0402040000036,0.189888219523709
18.0476450000033,0.0699745247256942
18.0543470000029,0.0780332407739479
18.0597540000007,-0.0367228757531848
18.0685480000004,0.149916987924371
18.0745380000025,-0.13439451425802
18.0809820000008,-0.02640771921142
18.0873740000054,-0.024151278717909
18.093188000001,-0.125691100925906
18.099512000002,-0.00577740612789057
18.1055340000018,0.0619158086774405
18.1122870000005,-0.118921779445373
18.1189140000045,-0.0647672076011077
18.1250240000039,-0.0718588777235709
18.1314540000036,-0.0911997962393798
18.1380540000051,0.478067905409262
18.1444040000066,0.245654534577625
18.1510070000067,0.140568877308397
18.1578780000061,-0.126980495493626
18.1644040000066,-0.0422028026659973
18.1708640000001,0.222445432358654
18.1772370000035,0.0209775311523117
18.1840780000016,-0.108928971545538
18.1910470000058,-0.117310036235722
18.1972140000016,0.0883483973157126
18.2042900000066,-0.0634778130333871
18.2109110000059,-0.0754047127848025
18.218013000004,0.195690495078452
18.2244530000016,0.0441866333712824
18.2308010000065,-0.00513270884403028
18.2377080000043,0.115103334595915
18.2438770000041,-0.0389793162466958
18.2510810000002,-0.0267300678533502
18.2571970000043,0.114780985953985
18.2631950000003,0.0438642847293522
18.2699800000042,0.0606264141097199
18.2756000000015,-0.105383136484306
18.2823840000033,0.183763595327036
18.2883440000042,0.0229116230038926
18.2938710000068,0.236628772603581
18.2998030000031,0.262739012599923
18.3067310000062,0.0722309652192052
18.3127240000069,0.25661438840325
18.3191080000028,0.337846246169647
18.3254880000055,-0.124724055000115
18.3318740000054,0.0735203597869258
18.3379760000035,0.30142084963154
18.3440350000039,0.706935441179667
18.3507719999999,0.0187210906588007
18.3567770000026,-0.122789963148534
18.3628920000046,0.987056411016965
18.3695270000026,0.535123615030898
18.3761210000068,-0.067668345378479
18.3835910000056,0.740782048582332
18.389688000001,0.82265860363259
18.3956689999998,0.0603040654677898
18.4016860000044,0.23598407531972
18.4078700000048,0.34461556765018
18.4140600000024,1.48121687909588
18.4208010000065,0.732723332534079
18.4267580000013,0.171514346933691
18.4330790000036,0.130253720766632
18.4399710000008,1.6813953857345
18.4473280000016,1.2301072870323
18.4544660000056,0.840387778938748
18.460452000007,2.48726699055987
18.4685680000037,0.920330242137425
18.4743900000006,-0.0831410801911261
18.4798640000001,0.250812112848507
18.4872140000016,0.831362016964704
18.4929200000018,1.83257689879974
18.499838000007,0.644077456003288
18.5060109999999,2.48791168784373
18.5117180000022,0.446477738500107
18.5187280000001,2.50209502808866
18.5246680000052,2.49016812833725
18.531813000001,2.51466662512394
18.5378220000044,1.28748534529586
18.5433930000067,1.10406896803761
18.5509650000036,0.0506336062098853
18.5573960000053,1.79131627263268
18.5639210000038,0.112524545460474
18.5705690000057,2.51015374413691
18.5763360000029,1.32713422825327
18.5832430000007,0.685338082170347
18.5894700000063,-0.0521956105658319
18.5960180000067,1.66624499956379
18.6022220000029,2.51789011154324
18.6084550000057,0.352351935056504
18.6146460000053,0.581541819468839
18.6208180000037,2.51337723055622
18.6266400000006,0.224379524210235
18.6327040000036,0.747873718704795
18.639650000006,1.09181971964426
18.6457260000035,1.02831703718402
18.6522780000046,1.48218392502167
18.658126000002,0.795903666352388
18.663938000001,-0.0312429488403723
18.670713000007,1.7497332978237
18.6765420000032,2.50693025771761
18.6831710000038,2.52562647894956
18.6894950000048,2.50177267944673
18.6958230000064,0.551241047127405
18.7031070000008,2.51821246018517
18.7089120000005,2.50660790907568
18.7150960000008,0.998983310768381
18.7217370000035,0.145404106937349
18.7275190000013,1.20399704703595
18.734889000006,0.357831861969316
18.7404610000029,0.461950473312754
18.7468470000029,0.217610202729702
18.753763000004,0.943539344356395
18.7593330000043,0.217610202729702
18.7682780000046,0.842321870790329
18.7740270000026,0.47355502442224
18.7800340000018,0.0348385227553081
18.7869140000045,0.941927601146745
18.7925710000023,0.414887571590953
18.7994620000049,0.261449618032202
18.8055070000067,0.200203376065474
18.8115510000065,0.621835399710108
18.8181820000038,0.864563927083509
18.8250480000004,-0.0515509132819716
18.8321030000001,0.236628772603581
18.8390350000039,0.0525676980614662
18.8448520000055,0.224057175568305
18.8508390000015,0.120260912866797
18.8575210000053,0.122517353360308
18.8633780000061,-0.0950679799425416
18.8698770000041,0.412953479739372
18.8758640000001,0.12703023434733
18.8820800000057,-0.0754047127848025
18.8882270000055,0.546728166140383
18.8939770000055,-0.0128690762503538
18.9012220000029,0.347839054069482
18.9075850000009,0.202782165200915
18.9135260000005,0.222445432358654
18.9204310000017,-0.0280194624210708
18.9264960000068,0.544149377004942
18.9347880000025,0.223734826926375
18.9413020000011,-0.0934562367328908
18.947588000007,-0.0570308401947841
18.9540170000047,0.120583261508727
18.9600970000029,0.0351608713972382
18.9690230000019,-0.0783058505621739
18.9748800000027,-0.0647672076011077
18.9818210000023,0.062882854603231
18.9880910000056,0.0316150363360066
18.9940210000053,-0.0947456313006114
19.0009970000014,0.150884033850161
19.0071240000054,0.270797728648176
19.0131240000054,0.0322597336198669
19.0198100000024,0.242753396800254
19.026625,-0.000942176498938352
19.0330210000053,0.446155389858177
19.039,0.195690495078452
19.0461010000035,-0.0808846396976151
19.0531530000046,0.330109878763324
19.0593360000029,0.202782165200915
19.0672270000055,-0.0251183246436995
19.0736240000054,-0.0792728964879643
19.0791110000014,-0.11344185253256
19.0875040000007,0.12509614249575
19.0935430000052,-0.0625107671075966
19.1001540000066,-0.0928115394490305
19.1070310000032,-0.052517959207762
19.1130960000008,-0.0886210071039386
19.1197250000015,0.155719263479114
19.1267860000059,0.111879848176613
19.1332970000058,0.065139295096742
19.140201000005,0.211163229891099
19.1470680000037,0.100275297067128
19.1541610000059,0.0796449839835986
19.1600820000023,0.0812567271932494
19.1674370000064,0.244687488651834
19.1736830000058,0.0590146709000692
19.1794970000014,-0.00900089254719205
19.1869710000008,0.00582714498159476
19.1929079999998,0.0993082511413377
19.1995950000063,0.123162050644169
19.2057080000043,0.0164646501652896
19.2114940000027,-0.0318876461242326
19.2179330000058,0.0757768002804369
19.224025000006,0.0522453494195361
19.2300350000039,0.14830524471472
19.2369980000034,0.171836695575621
19.2431090000048,0.0461207252228633
19.2505030000061,-0.0512285646400414
19.2566190000027,-0.0473603809368797
19.2632410000041,-0.0992585122876335
19.2697580000013,0.174415484711062
19.2758210000023,-0.0957126772264019
19.2826780000031,-0.0509062159981113
19.2885570000038,0.220188991865143
19.2953590000048,0.0522453494195361
19.3021030000001,0.0267798067070544
19.3079890000001,-0.103126695990795
19.3143500000015,0.165389722737018
19.3206799999997,0.361377697030548
19.3268640000001,-0.0412357567402069
19.334063000001,0.012918815104058
19.3402470000014,0.0196881365845911
19.3459330000058,-0.119244128087303
19.3525840000063,0.154752217553323
19.3587370000035,-0.00255391970858909
19.3651350000054,0.131220766692422
19.371525000006,0.00776123683317564
19.377439000003,-0.105705485126236
19.3845690000057,0.114458637312055
19.3908030000031,-0.131815725122578
19.3970090000033,-0.0167372599535156
19.4037840000018,0.143470015085768
19.4104570000023,0.209229138039518
19.4178080000058,0.108011664473452
19.4238859999999,0.00776123683317564
19.4296810000017,-0.0441368945175782
19.4367890000045,0.111879848176613
19.4428850000054,-0.128592238703277
19.4497260000035,0.116070380521705
19.4558200000003,0.251779158774298
19.4622170000002,0.388777331594611
19.4696940000057,0.0922165810188744
19.4757220000029,-0.125691100925906
19.4829580000043,0.0925389296608046
19.4891090000048,0.0680404328741133
19.4949010000005,-0.122467614506604
19.5014310000017,0.0074388881912455
19.5073530000001,-0.0679906940204091
19.5133020000011,0.00808358547510579
19.5198790000007,0.101564691634849
19.5261530000046,-0.105060787842376
19.5328859999999,0.0264574580651242
19.5390310000032,0.268218939512735
19.5457290000021,-0.02640771921142
19.5523490000069,-0.108284274261678
19.5580160000026,-0.125368752283975
19.5643040000051,-0.0463933350110892
19.5708200000003,0.041285495593911
19.5767170000002,-0.0283418110630009
19.5831110000014,0.0996305997832678
19.5892650000006,0.0786779380578082
19.595064000003,-0.0918444935232401
19.6014100000039,0.315281841234537
19.6073010000065,0.164422676811228
19.6129930000007,0.0786779380578082
19.6200439999998,0.184085943968967
19.6261799999997,-0.0596096293302253
19.6326190000027,0.227280661987606
19.6389480000064,0.0142082096717786
19.6471610000059,-0.0934562367328908
19.6545960000008,0.233727634826209
19.6608740000054,-0.00158687378279865
19.6682030000016,-0.0251183246436995
19.6740970000029,-0.0641225103172474
19.6806230000034,-0.116342990309931
19.6867290000021,0.101564691634849
19.6924030000046,-0.132138073764509
19.6990670000017,-0.0995808609295636
19.705275000006,-0.0247959760017693
19.7118080000058,-0.11311950389063
19.7181200000048,0.160554493108066
19.7244310000017,-0.0425251513079274
19.7308560000062,0.100275297067128
19.7372780000046,-0.0876539611781482
19.7430050000027,0.00969532868475653
19.7497280000001,0.0973741592897568
19.7559650000036,0.219544294581283
19.7617530000061,0.146371152863139
19.7685060000047,-0.061221372539876
19.7746310000047,-0.0750823641428724
19.7815090000033,0.210196183965309
19.7877530000061,-0.0405910594563466
19.7933930000067,0.14894994199858
19.800074000001,-0.0973244204360526
19.807200000003,0.0828684704029001
19.8138490000069,-0.087331612536218
19.8205400000066,0.0154976042394992
19.8270480000004,0.0938283242285252
19.8341469999999,0.440675462945364
19.8408540000021,-0.0334993893338833
19.8483020000011,0.0370949632488191
19.8549280000031,-0.116987687593792
19.8610820000023,-0.000942176498938352
19.8681860000044,0.135088950395584
19.8754060000032,-0.0109349843987729
19.8836420000046,0.00937298004282638
19.8914060000032,0.361377697030548
19.9001359999999,0.00228130992036313
19.9073859999999,0.40844059875235
19.9137560000047,0.328820484195603
19.9209020000026,0.131220766692422
19.926264000006,0.112846894102404
19.9333960000053,-0.0979691177199129
19.9393120000064,0.528998990834225
19.9467450000048,0.545116422930732
19.9534610000029,0.665674815012608
19.9598610000014,-0.0309206001984421
19.9675480000004,0.412953479739372
19.9740610000044,0.680502852541395
19.980512000002,0.58444295724621
19.9868180000037,0.73562447031145
19.992575000003,0.47548911627382
19.999637000002,1.11599586778902
20.0056359999999,1.15757884259801
20.0118960000053,0.155719263479114
20.0184990000054,2.44600636439282
20.0245890000016,0.367502321227221
20.0304540000036,2.39152944390662
20.0366830000058,2.48694464191794
20.0425540000051,2.47082720982144
20.0492250000015,1.6855859180796
20.0552400000021,1.75489087609458
20.0607340000048,2.48372115549864
20.0670420000032,1.18852431222331
20.0731630000025,0.219221945939353
20.0789220000058,1.21818038728088
20.0872990000024,2.015993276058
20.0931280000061,1.31004975023097
20.0995270000026,1.90736178372754
20.1065650000051,0.208584440755658
20.1138940000013,0.668898301431909
20.1211670000032,1.60725519809057
20.1283510000035,2.33125024786568
20.1362110000029,1.34196226578206
20.143025000006,0.680502852541395
20.1526100000069,2.50531851450796
20.1592939999998,0.746906672779005
20.1681469999999,1.30295808010851
20.1738360000029,1.07376819569618
20.1809240000024,1.51248469736311
20.1871630000025,-0.00609975476982072
20.1929570000023,0.1705473010079
20.1997440000027,1.65818628351553
20.2065610000044,0.0922165810188744
20.2126110000014,-0.0196383977308869
20.2191960000023,2.50693025771761
20.2262190000042,2.49758214710164
20.2329530000016,0.535123615030898
20.2393950000033,0.0915718837350141
20.2470549999997,0.590567581442883
20.2537930000052,0.0461207252228633
20.2598730000034,0.608619105390972
20.2691700000018,0.590245232800953
20.2756810000017,-0.0489721241465304
20.2817939999998,0.369114064436872
20.2880300000012,1.01252195372945
20.2939660000056,1.79034922670689
20.300202000007,0.345904962217901
20.3066710000038,0.560589157743379
20.3126330000013,0.0980188565736171
20.3191570000052,-0.050261518714251
20.325639000006,0.777852142404299
20.3319450000003,0.0583699736162089
20.3384360000044,0.374916339991614
20.3448900000006,0.728532800188987
20.3515020000041,0.600238040700788
20.357202000007,0.0248457148554735
20.3634860000014,0.435517884674482
20.3704620000049,0.00840593411703594
20.3762070000023,0.348483751353342
20.3826780000031,0.14733819878893
20.388827000007,0.174737833352992
20.3944960000068,-0.00255391970858909
20.4012840000018,0.326564043702092
20.4069640000016,0.139601831382606
20.4129790000021,0.825237392768031
20.4196860000044,0.708869533031248
20.4259710000008,0.157653355330694
20.432513000004,0.232438240258489
20.4385549999997,0.396191350359004
20.4441530000046,-0.0789505478460342
20.4511840000004,0.132187812618213
20.4569420000017,-0.0422028026659973
20.4639740000069,0.100919994350988
20.4707180000022,0.227925359271467
20.476449000001,-0.0280194624210708
20.4833370000049,0.251456810132368
20.489763000004,-0.0905550989555195
20.4960800000057,0.076099148922367
20.5025830000043,-0.00738914933754131
20.5087850000039,-0.102804347348865
20.5151430000067,0.149916987924371
20.5213540000021,0.30109850098961
20.5271689999998,0.245332185935695
20.5334950000048,-0.0196383977308869
20.5393720000014,-0.0979691177199129
20.5465410000011,-0.11247480660677
20.5531579999998,0.129931372124702
20.559314000003,-0.0157702140277252
20.565514000006,0.0312926876940764
20.571939000003,0.0290362472005654
20.57775,-0.0824963829072658
20.5847360000014,0.00808358547510579
20.5907220000029,0.0396737523842603
20.5970400000066,-0.115375944384141
20.6032800000012,0.0796449839835986
20.6090570000038,-0.126658146851696
20.6155100000054,-0.0467156836530194
20.6219260000065,0.4303603064036
20.6277410000041,0.162810933601577
20.6339680000022,0.0574029276904184
20.640076000005,-0.0824963829072658
20.6464970000014,0.0422525415197015
20.6531490000039,0.142502969159978
20.6591060000062,-0.0338217379758134
20.6653920000046,0.0783555894158781
20.6717520000041,0.422946287639206
20.6773070000038,0.14733819878893
20.6845540000051,0.0461207252228633
20.6906520000026,0.114780985953985
20.6967180000022,-0.0779835019202437
20.7037920000032,0.0219445770781022
20.7094920000061,-0.0467156836530194
20.7157190000042,0.0232339716458227
20.7216650000066,0.183118898043176
20.7274930000007,-0.0889433557458688
20.7340300000012,0.0844802136125509
20.7403430000022,0.0354832200391684
20.7460460000038,0.0889930945995729
20.7527380000055,-0.115053595742211
20.7585570000038,-0.0979691177199129
20.7654650000036,-0.0299535542726517
20.7720420000032,0.232115891616559
20.7779930000007,-0.0876539611781482
20.7846240000054,-0.00481036020210013
20.7908200000003,0.12509614249575
20.7969189999998,0.198269284213893
20.8035020000041,0.128641977556981
20.8093540000021,-0.129236935987137
20.8157600000054,0.0989859024994075
20.822063000001,0.434228490106761
20.8280680000037,0.237273469887441
20.834702000007,0.199881027423544
20.8408030000031,-0.0779835019202437
20.8466440000013,-0.0447815918014385
20.8535710000023,0.132832509902073
20.8592840000018,-0.104416090558516
20.8658300000057,-0.0802399424137548
20.8719460000023,0.353641329624224
20.8777800000012,-0.0367228757531848
20.8847790000066,-0.0602543266140856
20.8909820000008,0.187631779030198
20.8967100000009,-0.04800507822074
20.9033320000023,0.0638499005290214
20.909076000005,0.095762416080106
20.9154560000002,-0.0228618841501884
20.9216060000062,0.0909271864511538
20.9272270000055,0.0174316960910801
20.9338580000028,0.0380620091746096
20.939876000002,0.114458637312055
20.9464690000042,-0.0667012994526885
20.9531510000005,0.0744874057127163
20.9590710000023,-0.0296312056307215
20.9659820000008,0.0828684704029001
20.9720900000036,0.019365787942661
20.9779800000042,0.154752217553323
20.984876000002,0.0171093474491499
20.9906100000069,-0.0360781784693245
20.9965040000007,-0.119244128087303
21.0030570000038,0.0300032931263559
21.0088770000041,-0.130848679196788
21.0152230000049,-0.106672531052027
21.0214140000045,0.133799555827864
21.0269370000064,-0.0899104016716592
21.0335830000043,0.102209388918709
21.0396650000066,-0.0238289300759789
21.0453280000016,0.0574029276904184
21.0518920000046,-0.030598251556512
21.0578440000042,-0.111507760680979
21.0643330000043,-0.0309206001984421
21.0708770000041,-0.0882986584620085
21.0763580000028,-0.0902327503135893
21.082650000006,-0.013191424892284
21.0885680000037,0.0177540447330102
21.0945050000027,-0.126013449567836
21.1014830000028,-0.100225558213424
21.1072410000041,0.130253720766632
21.1135620000064,-0.0460709863691591
21.1207939999998,0.0686851301579736
21.1270510000065,-0.11376420117449
21.1348460000008,0.201170421991264
21.1404460000023,-0.109896017471328
21.1468830000013,-0.0505838673561811
21.153376000002,0.161199190391926
21.1591910000071,-0.132782771048369
21.1665090000033,-0.0331770406919532
21.1723990000039,0.108656361757312
21.1788800000027,0.0841578649706207
21.1864040000066,0.113491591386264
21.1926700000018,-0.130203981912928
21.1993900000006,-0.103449044632725
21.2057660000026,0.118326821015216
21.2115260000005,-0.0383346189628355
21.2183810000047,-0.0283418110630009
21.2244400000051,-0.0750823641428724
21.2303820000067,-0.0644448589591775
21.2367730000019,0.0212998797942419
21.2429299999997,-0.0434921972337179
21.2487790000066,0.0893154432415031
21.2552250000015,0.243075745442184
21.2614600000009,-0.100225558213424
21.2694079999998,0.041285495593911
21.2753230000064,0.000669566710712388
21.2813110000044,-0.0422028026659973
21.2875100000054,0.0545017899130471
21.2931600000039,-0.131493376480648
21.2998910000026,0.0596593681839295
21.3060420000032,0.101564691634849
21.3122110000029,0.0393514037423301
21.319138000004,0.0744874057127163
21.3253340000063,0.00131426399457268
21.3324350000024,-0.0364005271112546
21.3384800000042,0.187954127672128
21.3454290000051,-0.0467156836530194
21.3524660000056,0.210518532607239
21.3581550000012,-0.107317228335887
21.3649370000064,-0.0970020717941225
21.3709050000012,-0.0915221448813099
21.3765430000052,-0.116020641668001
21.383963000007,0.0483771657163743
21.3896270000041,-0.00448801156016998
21.3959079999998,0.000991915352642536
21.4029290000051,0.273054169141687
21.4088840000033,0.109945756325033
21.416064000003,-0.0418804540240671
21.4220219999999,0.23566172667779
21.4281060000062,-0.124724055000115
21.4346150000021,-0.0818516856234055
21.4406620000005,0.0248457148554735
21.4467570000067,-0.118599430803442
21.4535460000038,0.032582082261797
21.4595450000018,0.0203328338684514
21.4653410000056,0.0680404328741133
21.4713620000035,-0.116665338951861
21.4775260000005,-0.126980495493626
21.4843859999999,-0.0206054436566774
21.4908700000048,0.0670733869483229
21.4966750000045,0.00486009905580431
21.5038400000036,-0.0828187315491959
21.5104980000034,-0.0934562367328908
21.517888000004,0.0209775311523117
21.5237609999999,0.425202728132717
21.5300520000011,0.106722269905731
21.5367100000009,-0.0170596085954458
21.542263000004,0.223412478284445
21.5487530000061,-0.00577740612789057
21.5550850000009,0.226313616061816
21.5609240000024,0.513848604663508
21.5675650000051,0.625703583413269
21.573375,0.347839054069482
21.5791040000021,0.642143364151707
21.5860940000042,0.463562216522405
21.5917960000038,0.015175255597569
21.598387000002,1.81001249386463
21.6046350000054,0.19053291680757
21.6103370000049,0.132832509902073
21.6163350000009,0.621513051068177
21.6222710000053,1.6011305738939
21.628014000006,0.0777108921320178
21.6344810000062,1.33615999022732
21.6402420000061,1.69654577190522
21.647088000007,0.334945108392276
21.6538930000067,1.1317909512436
21.6603070000038,0.234694680752
21.6666799999997,1.56921805834281
21.6728020000011,0.721118781424593
21.6787450000048,0.504822842689464
21.6858820000067,0.221800735074794
21.6922670000046,2.35574874465237
21.6982939999998,0.592824021936394
21.7043790000007,1.19658302827156
21.7103360000029,2.00342167902272
21.7169210000038,1.29457701541833
21.7234370000064,0.580574773543049
21.7287080000043,0.695653238712111
21.7356560000032,1.80872309929691
21.7419940000027,0.484514878247865
21.7479290000051,2.49468100932427
21.7544840000048,2.49145752290497
21.7607240000069,2.48372115549864
21.7676660000011,2.49983858759515
21.773939000003,2.48178706364706
21.7798320000023,0.0864143054641318
21.7866530000046,0.115425683237845
21.7924010000005,0.978030649042921
21.7990350000039,-0.0164149113115855
21.8060390000045,1.85804244151223
21.8117760000005,2.48210941228899
21.8186790000051,2.49468100932427
21.8254290000051,1.62079384105164
21.8314350000024,2.22648693923838
21.8376780000031,1.42545056404197
21.8433170000017,1.35872439516243
21.8498410000056,1.30618156652781
21.8559110000059,0.329787530121394
21.8616410000026,1.07118940656073
21.868189000003,0.547050514782313
21.8738390000015,0.732078635250218
21.8801130000055,1.18465612852015
21.8866310000047,0.0109847232524771
21.8924870000035,0.487738364667166
21.8992250000015,0.331721621972974
21.9058820000067,0.506112237257184
21.9119530000016,0.200848073349334
21.9185020000041,0.122839702002238
21.9243510000035,0.176027227920713
21.930450000003,0.258226131612901
21.9370240000039,-0.0605766752560157
21.9432790000066,0.378784523694776
